<?xml version="1.0" encoding="UTF-8"?>
<xrdMeasurements xmlns="http://www.xrdml.com/XRDMeasurement/1.3" xmlns:xsi="http://www.w3.org/2001/XMLSchema-instance" xsi:schemaLocation="http://www.xrdml.com/XRDMeasurement/1.3 http://www.xrdml.com/XRDMeasurement/1.3/XRDMeasurement.xsd" status="Completed">
	<comment>
		<entry>Configuration=Sample Spinner, Owner=User-1, Creation date=30/May/05 09:52:22</entry>
		<entry>Goniometer=PW3050/60 (Theta/2Theta); Minimum step size 2Theta:0.001; Minimum step size Omega:0.001</entry>
		<entry>Sample stage=Spinner PW3064</entry>
		<entry>Diffractometer system=XPERT-PRO</entry>
		<entry>Measurement program=Riet_cuant_2H30M, Owner=User-1, Creation date=09/Apr/18 08:50:52</entry>
	</comment>
	<sample type="To be analyzed">
		<id></id>
		<name></name>
		<preparedBy></preparedBy>
	</sample>
	<xrdMeasurement measurementType="Scan" status="Completed" sampleMode="Reflection">
		<comment>
			<entry/>
		</comment>
		<usedWavelength intended="K-Alpha 1">
			<kAlpha1 unit="Angstrom">1.5405980</kAlpha1>
			<kAlpha2 unit="Angstrom">1.5444260</kAlpha2>
			<kBeta unit="Angstrom">1.3922500</kBeta>
			<ratioKAlpha2KAlpha1>0.0000</ratioKAlpha2KAlpha1>
		</usedWavelength>
		<incidentBeamPath>
			<radius unit="mm">240.00</radius>
			<xRayTube id="1010048" name="PW3373/10 Cu LFF DK419152">
				<tension unit="kV">45</tension>
				<current unit="mA">40</current>
				<anodeMaterial>Cu</anodeMaterial>
				<focus type="Line">
					<length unit="mm">12.0</length>
					<width unit="mm">0.4</width>
					<takeOffAngle unit="deg">6.0</takeOffAngle>
				</focus>
			</xRayTube>
			<monochromator id="23010013" name="Inc. Beam 1xGe111 Cu/Co (a1 for reflection mode)" hybrid="false">
				<crystal type="Symmetric" shape="Curved">Ge</crystal>
				<numberOfReflections>1</numberOfReflections>
				<hkl>
					<h>1</h>
					<k>1</k>
					<l>1</l>
				</hkl>
			</monochromator>
			<sollerSlit id="21010002" name="Soller 0.04 rad.">
				<opening unit="rad">0.0400</opening>
			</sollerSlit>
			<mask id="22080002" name="Inc. Mask Fixed  10 mm (MPD/MRD)">
				<width unit="mm">6.60</width>
			</mask>
			<antiScatterSlit id="22010003" name="Slit Fixed 1°" xsi:type="fixedAntiScatterSlitType">
				<height unit="mm">1.52</height>
			</antiScatterSlit>
			<divergenceSlit id="22010012" name="Prog. Div. Slit" xsi:type="fixedDivergenceSlitType">
				<distanceToSample unit="mm">140.00</distanceToSample>
				<angle unit="deg">0.5</angle>
			</divergenceSlit>
		</incidentBeamPath>
		<sampleMovement xsi:type="spinningSampleMovementType">
			<spinnerRevolutionTime unit="seconds">4.0</spinnerRevolutionTime>
		</sampleMovement>
		<diffractedBeamPath>
			<radius unit="mm">240.00</radius>
			<antiScatterSlit id="22060009" name="Prog. AS Slit" xsi:type="fixedAntiScatterSlitType">
				<angle unit="deg">0.5</angle>
			</antiScatterSlit>
			<sollerSlit id="21010002" name="Soller 0.04 rad.">
				<opening unit="rad">0.0400</opening>
			</sollerSlit>
			<detector id="7010013" name="X'Celerator" xsi:type="rtmsDetectorType">
				<phd>
					<lowerLevel unit="%">30.5</lowerLevel>
					<upperLevel unit="%">80.0</upperLevel>
				</phd>
				<mode>Scanning</mode>
				<activeLength unit="deg">2.122</activeLength>
			</detector>
		</diffractedBeamPath>
		<scan appendNumber="0" mode="Continuous" scanAxis="Gonio" status="Completed">
			<header>
				<startTimeStamp>2018-07-18T10:42:49+02:00</startTimeStamp>
				<endTimeStamp>2018-07-18T13:10:09+02:00</endTimeStamp>
				<author>
					<name>Universidad Malaga</name>
				</author>
				<source>
					<applicationSoftware version="2.2d">X'Pert Data Collector</applicationSoftware>
					<instrumentControlSoftware version="2.2B">XPERT-PRO</instrumentControlSoftware>
					<instrumentID>0000000000007944</instrumentID>
				</source>
			</header>
			<dataPoints>
				<positions axis="2Theta" unit="deg">
					<startPosition>4.00835563</startPosition>
					<endPosition>70.00115683</endPosition>
				</positions>
				<positions axis="Omega" unit="deg">
					<startPosition>2.00517782</startPosition>
					<endPosition>35.00157841</endPosition>
				</positions>
				<commonCountingTime unit="seconds">274.955</commonCountingTime>
				<intensities unit="counts">3333 3392 3257 3255 3321 3205 3218 3250 3268 3263 3210 3289 3346 3380 3262 3208 3294 3239 3318 3194 3166 3315 3232 3317 3263 3328 3291 3221 3168 3283 3381 3237 3219 3264 3208 3243 3156 3295 3216 3268 3220 3246 3214 3217 3243 3177 3240 3285 3208 3136 3254 3239 3154 3333 3176 3250 3286 3242 3262 3200 3100 3236 3111 3070 3200 3270 3214 3177 3207 3140 3170 3080 3156 3123 3169 3117 3198 3221 3178 3192 3202 3190 3112 3171 3226 3220 3122 3150 3149 3203 3038 3157 3250 3149 3178 3158 3197 3116 2979 3099 3285 3236 3139 3171 3017 3124 3034 3137 3103 3113 3136 3131 3103 3157 3055 3164 3140 3111 3092 3009 3007 3111 3110 3153 3198 3074 3104 3116 3141 3073 3023 3087 3162 3126 2966 3129 3083 3046 3002 3045 3037 3043 3117 3077 3012 3035 3044 3010 3186 3092 2997 3029 3029 2995 2943 3084 2992 3070 3124 2989 2976 2992 3071 3043 3017 3126 3002 3007 2989 2939 2942 3037 2977 3033 2938 2981 3027 3074 2970 3070 3007 2961 2933 2994 2966 3031 3052 3072 3043 3025 2998 3015 3006 2896 3006 2863 2953 2881 2988 2915 3072 2990 2987 3026 2904 3060 2912 2816 2963 2994 2991 2914 2875 3006 2981 2959 2961 2989 2821 2986 2957 2939 2919 2978 2900 3012 2894 2877 2963 2961 2929 2889 3011 2924 2842 2942 2917 2894 2889 2965 2822 2894 2912 2911 2927 2819 2777 2924 2863 3029 2921 2929 2822 2892 2894 2817 3038 2851 2907 2899 2968 2890 2819 2976 2844 2852 2770 2889 2773 2839 2854 2791 2825 2909 2778 2875 2928 2836 2721 2796 2862 2881 2782 2849 2808 2795 2780 2756 2769 2810 2809 2849 2864 2824 2787 2836 2812 2815 2766 2666 2774 2811 2809 2809 2747 2698 2750 2743 2806 2757 2809 2829 2702 2839 2687 2785 2742 2648 2770 2764 2663 2802 2773 2720 2763 2735 2761 2821 2751 2766 2718 2682 2750 2727 2746 2652 2805 2678 2680 2768 2747 2792 2675 2722 2691 2577 2766 2705 2693 2750 2727 2670 2759 2738 2687 2626 2644 2638 2749 2642 2593 2616 2725 2695 2713 2703 2656 2711 2715 2596 2574 2670 2692 2670 2594 2673 2636 2554 2615 2624 2618 2582 2732 2646 2664 2545 2700 2702 2654 2609 2598 2660 2604 2632 2514 2738 2681 2587 2698 2599 2629 2643 2616 2637 2668 2595 2660 2594 2643 2550 2544 2637 2591 2553 2579 2652 2629 2591 2515 2630 2623 2681 2675 2563 2585 2621 2654 2597 2547 2546 2636 2578 2661 2566 2567 2529 2632 2486 2569 2578 2678 2644 2663 2591 2646 2589 2630 2662 2640 2684 2715 2717 2758 2691 2844 2862 2763 2745 2750 2685 2716 2632 2720 2652 2623 2652 2733 2668 2719 2737 2732 2720 2818 2852 2922 3057 3048 3299 3502 3633 3857 4136 4492 4991 5138 5249 5235 4965 4706 4191 3777 3412 2988 2900 2845 2665 2700 2524 2656 2564 2642 2522 2554 2607 2653 2491 2521 2535 2518 2631 2585 2474 2482 2561 2596 2469 2447 2548 2463 2547 2486 2472 2573 2461 2538 2646 2499 2474 2534 2517 2528 2643 2601 2633 2707 2652 2477 2545 2424 2567 2510 2504 2526 2534 2540 2432 2577 2583 2548 2520 2601 2551 2420 2487 2542 2479 2552 2506 2529 2475 2469 2582 2571 2438 2486 2488 2549 2474 2441 2552 2490 2438 2482 2583 2496 2596 2489 2517 2587 2475 2562 2460 2568 2520 2542 2507 2507 2525 2542 2467 2520 2566 2558 2568 2570 2585 2519 2595 2447 2491 2588 2553 2495 2566 2526 2585 2627 2637 2606 2659 2655 2575 2601 2600 2643 2545 2601 2619 2637 2617 2696 2563 2635 2583 2621 2675 2683 2607 2675 2640 2663 2682 2649 2669 2645 2630 2733 2571 2715 2640 2602 2691 2715 2770 2760 2671 2631 2652 2551 2600 2545 2575 2750 2633 2685 2597 2769 2662 2615 2578 2639 2661 2590 2639 2648 2639 2623 2642 2648 2643 2622 2635 2644 2611 2700 2663 2682 2558 2737 2609 2682 2601 2642 2593 2669 2599 2664 2611 2673 2588 2569 2528 2635 2588 2534 2584 2528 2529 2610 2522 2549 2643 2649 2659 2612 2523 2634 2622 2554 2609 2605 2529 2585 2590 2540 2540 2652 2630 2596 2531 2559 2551 2695 2652 2523 2610 2640 2643 2621 2590 2555 2632 2678 2686 2684 2566 2538 2598 2593 2591 2643 2545 2621 2658 2583 2603 2587 2575 2558 2590 2571 2704 2552 2568 2588 2658 2577 2528 2567 2577 2578 2596 2583 2580 2618 2599 2557 2528 2637 2577 2516 2565 2628 2619 2620 2670 2695 2696 2685 2710 2683 2770 2780 2751 2791 2717 2648 2596 2533 2578 2639 2524 2618 2556 2572 2577 2579 2521 2551 2572 2513 2606 2624 2570 2612 2467 2532 2500 2461 2524 2559 2471 2449 2427 2613 2493 2452 2419 2485 2540 2485 2461 2454 2433 2466 2447 2382 2566 2562 2408 2516 2532 2567 2502 2424 2548 2550 2519 2575 2529 2430 2529 2541 2493 2471 2495 2526 2557 2471 2508 2529 2423 2505 2490 2455 2515 2492 2595 2486 2535 2499 2532 2447 2463 2522 2505 2464 2552 2536 2465 2496 2501 2374 2532 2516 2470 2481 2600 2476 2434 2466 2484 2510 2489 2605 2545 2575 2479 2441 2491 2430 2503 2426 2477 2458 2378 2585 2454 2573 2418 2455 2554 2442 2512 2554 2482 2538 2460 2580 2495 2516 2535 2464 2488 2516 2439 2490 2573 2523 2480 2480 2558 2556 2460 2490 2420 2427 2500 2420 2522 2489 2585 2532 2558 2530 2486 2562 2507 2575 2553 2480 2553 2559 2472 2518 2516 2594 2515 2566 2572 2460 2474 2544 2605 2552 2555 2613 2520 2476 2581 2651 2622 2523 2580 2620 2630 2620 2639 2597 2619 2691 2621 2508 2610 2506 2572 2566 2646 2585 2583 2557 2664 2533 2746 2652 2618 2613 2633 2518 2627 2632 2613 2754 2757 2733 2813 2842 2778 2915 2898 2994 3085 3064 2915 2854 2781 2829 2738 2834 2646 2662 2661 2721 2652 2636 2692 2741 2728 2782 2812 2745 2829 2750 2830 2701 2824 2689 2699 2675 2644 2570 2730 2596 2623 2627 2629 2645 2594 2717 2617 2693 2708 2712 2722 2806 2672 2677 2682 2636 2715 2696 2693 2683 2692 2783 2730 2842 2672 2844 2724 2940 2757 2787 2914 2897 2832 2908 2887 2932 2873 2980 2878 2977 2863 2770 2913 2870 2947 2858 2818 3051 2953 2906 2972 2948 2976 3021 2910 3020 3061 3059 3027 3099 3079 3060 3116 3194 3126 3178 3215 3229 3248 3193 3161 3242 3301 3209 3257 3364 3347 3263 3416 3356 3486 3386 3488 3337 3291 3434 3445 3313 3376 3370 3411 3418 3280 3335 3298 3468 3262 3477 3284 3396 3337 3254 3389 3376 3430 3278 3397 3353 3216 3341 3382 3269 3260 3125 3149 3082 3039 3128 3051 2916 3082 3074 3085 3087 3001 3025 3042 2949 2932 2873 2905 2832 2864 2877 2901 2844 2865 2785 2843 2826 2884 2794 2856 2885 2794 2839 2827 2796 2689 2946 2756 2781 2803 2733 2713 2754 2636 2684 2759 2800 2846 2719 2825 2766 2720 2833 2743 2854 2872 2867 2855 2888 2959 3038 3158 3153 3418 3509 3760 3862 3974 4165 4210 4283 4182 4096 3950 3749 3648 3374 3303 3168 3090 2871 2787 2677 2725 2715 2763 2718 2808 2686 2798 2599 2565 2775 2658 2700 2680 2667 2665 2693 2654 2716 2634 2632 2709 2648 2588 2630 2639 2631 2654 2679 2650 2713 2654 2718 2745 2748 2655 2714 2689 2695 2631 2658 2572 2765 2783 2696 2677 2771 2668 2697 2673 2627 2693 2732 2652 2779 2689 2682 2795 2738 2637 2767 2758 2750 2821 2811 2782 2776 2689 2620 2628 2633 2766 2665 2612 2642 2763 2713 2746 2636 2710 2753 2666 2733 2685 2655 2749 2746 2839 2880 2854 2882 2841 2979 2813 2791 2798 2796 2655 2766 2842 2742 2828 2787 2884 2873 2782 2760 2721 2659 2836 2713 2642 2781 2680 2617 2802 2602 2624 2660 2747 2762 2740 2779 2964 2934 3014 3153 2948 2808 2779 2817 2846 2796 2803 2795 2694 2720 2758 2647 2668 2689 2647 2635 2561 2635 2694 2654 2654 2627 2642 2652 2684 2613 2631 2628 2616 2640 2617 2668 2633 2584 2728 2661 2603 2684 2773 2629 2717 2605 2643 2729 2617 2528 2679 2697 2568 2612 2650 2628 2669 2649 2724 2629 2646 2681 2652 2491 2774 2711 2667 2569 2645 2653 2632 2656 2624 2651 2585 2612 2670 2710 2539 2694 2681 2675 2662 2627 2624 2614 2582 2647 2596 2584 2559 2599 2653 2623 2632 2648 2513 2737 2709 2648 2645 2652 2551 2733 2746 2715 2677 2605 2646 2730 2586 2601 2513 2623 2660 2656 2786 2607 2629 2633 2651 2652 2633 2633 2701 2697 2663 2633 2699 2677 2727 2704 2759 2701 2719 2774 2756 2707 2703 2887 2796 2855 2825 2815 2839 2865 2857 3048 3090 3019 2954 3139 3029 2961 3012 3038 2934 3004 2947 3009 3073 2978 2966 2976 3082 3090 3075 2900 2923 2947 2848 2888 2766 2932 2830 2835 2923 2836 2777 2817 2765 2814 2834 2741 2719 2634 2729 2720 2811 2773 2653 2763 2729 2758 2750 2667 2656 2691 2572 2699 2676 2656 2629 2654 2703 2691 2687 2677 2729 2843 2654 2676 2667 2591 2760 2639 2643 2627 2648 2567 2663 2831 2661 2571 2659 2610 2725 2632 2615 2709 2675 2631 2572 2639 2646 2685 2607 2666 2591 2644 2686 2673 2676 2610 2734 2683 2745 2538 2605 2661 2548 2679 2629 2606 2566 2775 2579 2596 2718 2594 2611 2699 2734 2802 2751 2923 2815 2763 2901 2845 2917 2838 2875 2722 2834 2781 2704 2712 2757 2683 2705 2735 2759 2699 2757 2779 2774 2708 2768 2715 2658 2825 2785 2814 2826 2802 2787 2774 2795 2860 2799 2734 2887 2836 2947 2899 2805 2874 2844 2879 2874 2937 2968 2982 2997 2885 2909 2841 2868 2904 2895 2912 2901 2909 3046 3083 3221 3380 3343 3593 3820 4215 4472 5031 5211 5471 5762 5802 6015 5992 6129 5847 5748 5509 5076 4862 4429 4350 4008 3776 3551 3421 3240 3141 3006 3125 3041 2877 2819 2846 2924 2756 2861 2848 2752 2842 2795 2758 2883 2798 2746 2749 2777 2824 2802 2959 2972 3007 3154 3201 3291 3435 3418 3553 3500 3602 3533 3562 3560 3506 3399 3604 3714 4008 4306 4651 5170 5539 5938 6280 6150 6155 6034 6102 5897 5949 5955 6066 6208 6060 6179 6187 6227 6116 6036 6062 5990 5989 6210 6365 6420 6706 6994 7476 8063 8597 9274 10013 10544 10863 11177 11066 11351 10727 10741 10513 10033 9909 9307 8786 8400 7878 7032 6513 5768 5105 4682 4196 3712 3485 3348 3381 3169 2976 3061 2957 2888 2741 2816 2832 2924 2849 2793 2833 2725 2727 2800 2856 2860 2760 2776 2882 2781 2941 2885 2880 2934 3067 3283 3305 3385 3492 3451 3577 3677 3472 3674 3710 3642 3678 3560 3540 3608 3329 3272 3336 3062 3008 2796 2936 2836 2823 2680 2760 2783 2716 2712 2708 2801 2727 2747 2696 2867 2722 2748 2708 2616 2733 2609 2672 2659 2627 2680 2635 2714 2598 2614 2628 2532 2684 2565 2613 2563 2590 2697 2579 2662 2655 2666 2596 2699 2644 2714 2683 2644 2654 2646 2637 2594 2605 2696 2658 2622 2696 2637 2692 2715 2719 2675 2620 2620 2762 2691 2610 2553 2644 2621 2630 2631 2605 2596 2593 2594 2585 2597 2652 2507 2517 2555 2520 2627 2599 2562 2604 2512 2476 2662 2609 2622 2554 2630 2644 2577 2665 2622 2615 2626 2656 2631 2622 2654 2628 2654 2684 2703 2695 2571 2618 2712 2612 2714 2684 2632 2885 2962 2983 3240 3266 3180 3248 3106 2864 2921 2797 2835 2855 2764 2660 2815 2698 2795 2691 2714 2634 2671 2707 2647 2648 2622 2703 2621 2710 2659 2645 2642 2534 2633 2661 2583 2669 2544 2624 2598 2593 2647 2760 2673 2619 2678 2612 2593 2614 2655 2628 2702 2693 2655 2711 2744 2710 2693 2729 2738 2629 2658 2704 2692 2749 2624 2638 2629 2729 2609 2658 2680 2568 2544 2542 2621 2618 2613 2593 2603 2636 2735 2736 2602 2643 2734 2637 2654 2620 2649 2623 2575 2582 2645 2588 2594 2584 2621 2671 2611 2515 2513 2515 2650 2587 2509 2578 2651 2570 2575 2563 2561 2542 2535 2571 2603 2638 2598 2562 2712 2646 2547 2562 2726 2605 2610 2579 2666 2619 2669 2618 2717 2549 2534 2618 2572 2577 2578 2524 2598 2601 2598 2575 2707 2475 2591 2476 2476 2618 2581 2647 2561 2699 2646 2622 2653 2617 2666 2679 2642 2620 2682 2582 2653 2557 2631 2610 2545 2629 2728 2640 2656 2633 2606 2730 2548 2471 2692 2635 2611 2633 2550 2517 2606 2568 2528 2416 2550 2563 2603 2546 2624 2449 2528 2568 2497 2611 2528 2601 2685 2536 2644 2599 2571 2583 2602 2649 2597 2640 2651 2637 2597 2559 2599 2700 2468 2631 2581 2571 2574 2751 2714 2589 2669 2669 2686 2700 2722 2594 2737 2815 2933 2995 2917 3165 3202 3229 3292 3358 3431 3217 3510 3380 3433 3575 3446 3450 3458 3303 3340 3182 3149 3061 2855 2900 2894 2871 2738 2771 2688 2731 2575 2606 2664 2583 2716 2701 2725 2660 2783 2627 2623 2669 2622 2704 2637 2655 2634 2678 2644 2729 2823 2774 2753 2727 2830 2876 2938 2945 3002 3174 3204 3300 3236 3297 3344 3267 3346 3263 3334 3425 3484 3320 3455 3501 3298 3443 3231 3316 3327 3198 3162 3103 3082 3042 2970 3023 2916 2904 2943 2792 2753 2764 2782 2765 2692 2661 2684 2740 2728 2610 2656 2770 2675 2637 2649 2636 2694 2636 2567 2658 2648 2663 2624 2695 2751 2707 2771 2879 2826 2907 2909 3115 3149 3282 3582 4094 4755 5583 6667 7905 8883 9486 8910 7489 5986 5072 4080 3822 3298 3200 3215 2937 2941 2890 2766 2787 2834 2829 2802 2808 2747 2713 2783 2667 2668 2798 2791 2704 2786 2748 2843 2705 2549 2675 2746 2749 2808 2803 2680 2711 2717 2663 2613 2672 2738 2784 2795 2636 2821 2776 2928 2863 2922 2937 3004 3180 3178 3201 3426 3498 3670 3792 4017 4003 4163 4196 4170 4253 4234 4254 4342 4229 4356 4343 4201 3993 4101 3952 4018 3980 3723 3608 3447 3551 3210 3223 3044 3004 2848 2912 2814 2805 2830 2783 2791 2850 2730 2620 2688 2699 2743 2694 2664 2626 2629 2702 2673 2685 2677 2730 2700 2503 2590 2602 2662 2586 2713 2544 2597 2637 2639 2549 2574 2578 2607 2620 2623 2587 2598 2591 2481 2549 2595 2571 2595 2587 2669 2544 2566 2554 2658 2629 2525 2590 2482 2628 2603 2552 2635 2630 2542 2577 2579 2605 2597 2556 2503 2567 2548 2582 2507 2461 2589 2607 2640 2537 2564 2649 2491 2656 2599 2547 2623 2570 2580 2632 2718 2564 2541 2559 2561 2565 2616 2618 2614 2638 2582 2590 2556 2595 2545 2588 2553 2604 2586 2583 2613 2590 2609 2661 2611 2633 2701 2647 2646 2692 2593 2716 2595 2564 2724 2670 2669 2732 2719 2715 2643 2589 2714 2727 2715 2744 2659 2606 2659 2591 2679 2681 2765 2667 2662 2797 2712 2787 2729 2748 2794 2828 2873 2985 3082 3099 3276 3353 3368 3688 3964 4047 4294 4546 4693 4860 5080 5240 5407 5374 5254 5349 5433 5402 5427 5355 5405 5237 5226 5219 5223 5307 4967 4913 4820 4677 4554 4310 4285 3958 3772 3721 3443 3390 3287 3208 3131 3164 3175 3139 3208 3308 3177 3178 3137 3037 2965 2969 2937 2923 2836 2934 2841 2749 2791 2806 2692 2699 2733 2805 2672 2726 2778 2700 2711 2841 2867 2903 2936 2892 2861 2866 2944 2952 2966 2971 2932 2831 2812 2779 2797 2812 2775 2852 2865 2774 2826 2865 2894 2796 2929 2764 2764 2791 2736 2818 2735 2878 2885 2836 2839 2892 2874 2993 3044 3069 3142 3206 3158 3155 3268 3281 3302 3322 3413 3302 3431 3324 3278 3313 3305 3243 3309 3206 3193 3176 3139 3109 2994 3093 2937 2862 2976 2962 2928 2892 2896 2786 2749 2789 2751 2867 2705 2736 2720 2775 2835 2806 2777 2759 2748 2642 2782 2692 2761 2792 2851 2827 2828 2874 2859 2871 2954 3059 3018 3105 3176 3230 3321 3447 3410 3470 3512 3555 3656 3627 3593 3705 3741 3803 3622 3661 3597 3712 3739 3570 3680 3707 3518 3511 3559 3458 3357 3253 3312 3187 3110 3090 2982 2981 2941 2944 2781 2777 2829 2683 2693 2702 2699 2761 2610 2703 2730 2759 2600 2718 2811 2736 2774 2741 2769 2682 2727 2634 2725 2624 2661 2751 2623 2718 2715 2735 2744 2712 2677 2605 2663 2668 2679 2675 2519 2632 2611 2654 2590 2737 2577 2536 2566 2620 2487 2638 2555 2611 2574 2649 2633 2555 2563 2596 2642 2558 2547 2619 2602 2613 2528 2508 2554 2615 2524 2577 2548 2554 2572 2575 2594 2501 2607 2616 2540 2604 2616 2565 2588 2571 2582 2529 2566 2554 2585 2671 2642 2515 2586 2569 2563 2533 2660 2473 2499 2610 2594 2542 2565 2589 2575 2481 2520 2593 2579 2564 2514 2565 2570 2579 2635 2447 2679 2598 2615 2536 2586 2688 2616 2599 2620 2697 2671 2582 2655 2618 2806 2591 2766 2689 2647 2672 2696 2664 2725 2647 2681 2664 2791 2779 2863 2819 2808 2995 2960 3004 2989 3045 2982 3031 2972 3036 3042 3093 3019 2981 2944 2871 2926 2893 2975 2766 2807 2922 2841 2773 2736 2765 2684 2567 2639 2698 2691 2603 2637 2630 2636 2605 2566 2569 2593 2611 2544 2638 2642 2660 2656 2516 2539 2559 2569 2636 2598 2612 2632 2637 2598 2619 2564 2598 2539 2666 2692 2678 2529 2593 2639 2577 2660 2660 2587 2571 2500 2630 2587 2663 2615 2542 2544 2617 2521 2654 2603 2617 2650 2609 2558 2541 2577 2556 2540 2552 2553 2437 2493 2637 2534 2561 2623 2501 2619 2567 2584 2609 2566 2563 2562 2575 2534 2610 2590 2554 2509 2545 2555 2526 2507 2577 2616 2486 2661 2603 2519 2615 2585 2582 2589 2595 2636 2597 2538 2626 2640 2656 2620 2584 2589 2633 2603 2569 2584 2544 2651 2628 2563 2554 2616 2555 2628 2596 2578 2539 2619 2497 2645 2604 2524 2568 2593 2568 2493 2600 2553 2586 2532 2547 2630 2654 2675 2541 2578 2571 2453 2593 2668 2547 2484 2709 2624 2692 2678 2634 2520 2694 2684 2705 2716 2600 2551 2600 2603 2631 2579 2600 2604 2565 2553 2542 2612 2493 2616 2655 2530 2555 2590 2540 2628 2563 2613 2551 2583 2599 2566 2480 2610 2610 2606 2609 2708 2609 2708 2575 2577 2658 2555 2607 2596 2597 2554 2636 2574 2584 2574 2658 2697 2558 2572 2774 2540 2624 2626 2581 2584 2621 2698 2573 2649 2603 2626 2545 2575 2557 2588 2636 2648 2440 2572 2596 2669 2594 2573 2578 2496 2550 2577 2495 2643 2691 2521 2510 2556 2680 2653 2520 2691 2681 2636 2656 2542 2666 2582 2697 2693 2776 2693 2613 2738 2552 2565 2539 2581 2632 2626 2622 2677 2591 2628 2689 2656 2571 2686 2684 2579 2667 2750 2770 2684 2767 2692 2736 2643 2721 2752 2697 2829 2790 2741 2793 2740 2692 2775 2843 2740 2662 2787 2808 2858 2830 2883 2949 3022 3060 3068 3175 3217 3164 3463 3352 3475 3594 3512 3663 3592 3583 3553 3629 3540 3622 3634 3686 3568 3563 3521 3480 3488 3422 3219 3203 3275 3100 3164 3064 3035 2942 3055 2923 2898 2965 2921 2920 2971 2962 3008 2824 3063 3103 3021 3099 3168 3109 3142 3184 3111 3057 2953 3143 3020 2993 3034 3035 3035 2968 3037 3008 3195 3048 2920 2997 2979 2933 2936 2988 2849 2815 2887 2845 2899 2884 2908 2939 3026 2976 2905 2871 2990 2997 2994 2932 2896 2988 2946 3001 3002 3231 3024 3174 3363 3278 3203 3263 3337 3267 3427 3313 3335 3315 3367 3311 3235 3294 3250 3233 3268 3205 3446 3181 3164 3221 3186 3203 3257 3128 3092 3259 3243 3173 3122 3207 3226 3097 3106 3086 3168 3010 3181 2937 3039 2943 2950 3020 2873 2980 3019 2976 2968 3017 2904 3041 2822 2954 2976 2996 2932 2846 2864 2988 2887 2889 2767 2917 2897 2809 2940 2807 2873 2745 2793 2858 2798 2781 2776 2704 2754 2775 2860 2753 2698 2836 2874 2749 2806 2823 2928 2874 2877 2891 2983 2857 2909 2897 3018 2899 2976 2925 2846 2966 2993 2867 2971 2910 2944 2972 2938 2912 2891 2881 2993 2938 2974 2881 2819 2871 2948 2764 2808 2780 2832 2696 2758 2709 2765 2734 2749 2720 2881 2862 2938 2903 3017 3077 3168 3324 3453 3716 4010 4453 4954 5398 5799 5608 5289 4737 4113 3744 3470 3256 3162 3085 2940 2773 2827 2832 2787 2809 2688 2769 2630 2597 2659 2658 2662 2547 2637 2679 2612 2627 2658 2622 2609 2547 2524 2695 2668 2549 2575 2609 2589 2583 2515 2676 2568 2584 2539 2578 2548 2584 2681 2645 2692 2529 2643 2677 2615 2506 2517 2559 2612 2619 2629 2561 2632 2639 2585 2563 2611 2587 2712 2584 2534 2660 2594 2518 2642 2630 2566 2627 2713 2611 2529 2637 2692 2676 2652 2654 2612 2574 2731 2538 2653 2620 2750 2765 2724 2775 2741 2633 2749 2810 2885 2670 2819 2747 2860 2722 2703 2874 2654 2650 2803 2774 2775 2845 2727 2765 2799 2687 2746 2686 2750 2764 2754 2713 2711 2711 2727 2619 2725 2631 2686 2692 2669 2587 2656 2594 2634 2646 2597 2619 2654 2622 2646 2617 2598 2656 2682 2648 2634 2638 2583 2568 2593 2562 2547 2616 2587 2615 2540 2635 2570 2609 2644 2568 2630 2635 2614 2612 2573 2672 2620 2642 2530 2589 2609 2667 2640 2581 2530 2506 2616 2635 2675 2523 2610 2561 2568 2653 2653 2645 2583 2530 2626 2619 2682 2650 2722 2627 2685 2786 2747 2697 2767 2819 2791 2908 2774 2847 2874 2831 2783 2915 2752 2808 2959 2778 2727 2842 2839 2702 2824 2744 2761 2754 2722 2757 2704 2680 2610 2725 2678 2578 2612 2577 2709 2623 2655 2643 2689 2626 2595 2632 2671 2570 2612 2548 2604 2643 2517 2521 2661 2653 2698 2642 2646 2579 2714 2639 2599 2626 2658 2539 2472 2623 2585 2613 2537 2547 2599 2607 2537 2545 2590 2635 2611 2540 2660 2573 2619 2684 2783 2719 2635 2679 2757 2662 2821 2891 2667 2718 2699 2718 2849 2766 2826 2728 2698 2751 2703 2805 2790 2675 2881 2794 2887 2717 2793 2770 2882 2868 2868 2858 2877 2775 2873 2883 2823 2823 2764 2827 2875 2701 2810 2888 2767 2662 2688 2677 2719 2738 2611 2687 2729 2649 2648 2586 2662 2544 2633 2635 2589 2689 2600 2517 2578 2609 2522 2653 2556 2680 2669 2604 2660 2644 2684 2744 2640 2696 2724 2616 2596 2586 2606 2679 2484 2572 2633 2628 2688 2532 2668 2606 2668 2695 2695 2708 2700 2826 2726 2664 2839 2844 2834 2826 2875 2841 2900 2949 2849 2903 2865 2889 2910 2891 2943 2914 2959 2946 3022 2970 2925 2956 2881 2819 2986 2848 2857 2844 2789 2805 2857 2732 2800 2762 2827 2858 2836 2843 2748 2676 2773 2763 2720 2832 2732 2692 2666 2699 2603 2675 2725 2787 2738 2768 2798 2677 2834 2778 2849 2743 2736 2768 2733 2805 2774 2931 2781 3011 2934 2840 2892 2801 2905 2900 2851 2877 2875 2831 2898 2842 2834 2808 2811 2819 2744</intensities>
			</dataPoints>
		</scan>
	</xrdMeasurement>
</xrdMeasurements>
