<?xml version="1.0" encoding="UTF-8"?>
<xrdMeasurements xmlns="http://www.xrdml.com/XRDMeasurement/1.3" xmlns:xsi="http://www.w3.org/2001/XMLSchema-instance" xsi:schemaLocation="http://www.xrdml.com/XRDMeasurement/1.3 http://www.xrdml.com/XRDMeasurement/1.3/XRDMeasurement.xsd" status="Completed">
	<comment>
		<entry>Configuration=Sample Spinner, Owner=User-1, Creation date=30/May/05 09:52:22</entry>
		<entry>Goniometer=PW3050/60 (Theta/2Theta); Minimum step size 2Theta:0.001; Minimum step size Omega:0.001</entry>
		<entry>Sample stage=Spinner PW3064</entry>
		<entry>Diffractometer system=XPERT-PRO</entry>
		<entry>Measurement program=Riet_cuant_2H30M, Owner=User-1, Creation date=09/Apr/18 08:50:52</entry>
	</comment>
	<sample type="To be analyzed">
		<id>clinker_NIST_macron_300418</id>
		<name></name>
		<preparedBy></preparedBy>
	</sample>
	<xrdMeasurement measurementType="Scan" status="Completed" sampleMode="Reflection">
		<comment>
			<entry/>
		</comment>
		<usedWavelength intended="K-Alpha 1">
			<kAlpha1 unit="Angstrom">1.5405980</kAlpha1>
			<kAlpha2 unit="Angstrom">1.5444260</kAlpha2>
			<kBeta unit="Angstrom">1.3922500</kBeta>
			<ratioKAlpha2KAlpha1>0.0000</ratioKAlpha2KAlpha1>
		</usedWavelength>
		<incidentBeamPath>
			<radius unit="mm">240.00</radius>
			<xRayTube id="1010048" name="PW3373/10 Cu LFF DK419152">
				<tension unit="kV">45</tension>
				<current unit="mA">40</current>
				<anodeMaterial>Cu</anodeMaterial>
				<focus type="Line">
					<length unit="mm">12.0</length>
					<width unit="mm">0.4</width>
					<takeOffAngle unit="deg">6.0</takeOffAngle>
				</focus>
			</xRayTube>
			<monochromator id="23010013" name="Inc. Beam 1xGe111 Cu/Co (a1 for reflection mode)" hybrid="false">
				<crystal type="Symmetric" shape="Curved">Ge</crystal>
				<numberOfReflections>1</numberOfReflections>
				<hkl>
					<h>1</h>
					<k>1</k>
					<l>1</l>
				</hkl>
			</monochromator>
			<sollerSlit id="21010002" name="Soller 0.04 rad.">
				<opening unit="rad">0.0400</opening>
			</sollerSlit>
			<mask id="22080002" name="Inc. Mask Fixed  10 mm (MPD/MRD)">
				<width unit="mm">6.60</width>
			</mask>
			<antiScatterSlit id="22010003" name="Slit Fixed 1°" xsi:type="fixedAntiScatterSlitType">
				<height unit="mm">1.52</height>
			</antiScatterSlit>
			<divergenceSlit id="22010012" name="Prog. Div. Slit" xsi:type="fixedDivergenceSlitType">
				<distanceToSample unit="mm">140.00</distanceToSample>
				<angle unit="deg">0.5</angle>
			</divergenceSlit>
		</incidentBeamPath>
		<sampleMovement xsi:type="spinningSampleMovementType">
			<spinnerRevolutionTime unit="seconds">4.0</spinnerRevolutionTime>
		</sampleMovement>
		<diffractedBeamPath>
			<radius unit="mm">240.00</radius>
			<antiScatterSlit id="22060009" name="Prog. AS Slit" xsi:type="fixedAntiScatterSlitType">
				<angle unit="deg">0.5</angle>
			</antiScatterSlit>
			<sollerSlit id="21010002" name="Soller 0.04 rad.">
				<opening unit="rad">0.0400</opening>
			</sollerSlit>
			<detector id="7010013" name="X'Celerator" xsi:type="rtmsDetectorType">
				<phd>
					<lowerLevel unit="%">30.5</lowerLevel>
					<upperLevel unit="%">80.0</upperLevel>
				</phd>
				<mode>Scanning</mode>
				<activeLength unit="deg">2.122</activeLength>
			</detector>
		</diffractedBeamPath>
		<scan appendNumber="0" mode="Continuous" scanAxis="Gonio" status="Completed">
			<header>
				<startTimeStamp>2018-04-30T14:39:28+02:00</startTimeStamp>
				<endTimeStamp>2018-04-30T17:09:31+02:00</endTimeStamp>
				<author>
					<name>Universidad Malaga</name>
				</author>
				<source>
					<applicationSoftware version="2.2d">X'Pert Data Collector</applicationSoftware>
					<instrumentControlSoftware version="2.2B">XPERT-PRO</instrumentControlSoftware>
					<instrumentID>0000000000007944</instrumentID>
				</source>
			</header>
			<dataPoints>
				<positions axis="2Theta" unit="deg">
					<startPosition>4.00835563</startPosition>
					<endPosition>70.00115683</endPosition>
				</positions>
				<positions axis="Omega" unit="deg">
					<startPosition>2.00417782</startPosition>
					<endPosition>35.00057841</endPosition>
				</positions>
				<commonCountingTime unit="seconds">280.035</commonCountingTime>
				<intensities unit="counts">2865 2982 2914 2926 2995 2901 2962 3038 2892 2944 2916 2921 2818 3071 3004 2929 2918 2977 2897 2938 2963 3009 2888 2914 2912 2982 3005 2929 2980 2897 2956 2947 2972 2906 2923 2915 2852 2849 2866 2893 2858 2835 2890 2874 2860 2874 2851 2879 2879 2843 2896 2957 2884 2904 2889 2907 2867 2853 2819 2858 2897 2858 2928 2875 2845 2823 2803 2810 2752 2859 2725 2760 2744 2907 2850 2796 2783 2782 2795 2798 2771 2746 2783 2765 2695 2722 2765 2778 2759 2780 2810 2708 2744 2770 2699 2747 2804 2752 2754 2748 2764 2813 2768 2771 2760 2704 2765 2679 2722 2695 2700 2683 2649 2709 2645 2725 2608 2815 2631 2591 2768 2721 2672 2747 2709 2693 2700 2619 2562 2619 2631 2609 2646 2611 2609 2666 2535 2640 2783 2604 2699 2514 2644 2696 2582 2621 2529 2639 2605 2581 2606 2617 2628 2527 2529 2553 2581 2612 2633 2508 2539 2619 2604 2525 2582 2538 2567 2614 2484 2484 2518 2635 2531 2584 2464 2483 2400 2517 2555 2464 2530 2506 2453 2575 2538 2436 2527 2490 2444 2413 2508 2410 2501 2416 2504 2536 2423 2486 2370 2402 2287 2491 2468 2392 2424 2431 2405 2531 2440 2371 2392 2435 2378 2372 2420 2373 2450 2401 2410 2425 2462 2297 2317 2290 2344 2451 2344 2395 2339 2392 2360 2298 2238 2275 2275 2402 2338 2223 2315 2263 2346 2284 2265 2236 2235 2313 2243 2230 2264 2323 2305 2198 2302 2176 2260 2211 2281 2318 2166 2287 2210 2186 2127 2235 2151 2201 2270 2186 2242 2261 2131 2201 2158 2241 2154 2191 2184 2112 2166 2177 2173 2130 2133 2171 2146 2134 2134 2144 2142 2181 2201 2105 2052 2155 2115 2123 2108 2152 2049 2025 2113 2127 2111 2138 2062 2119 2107 2075 2133 2061 2023 2086 2109 2066 2076 2074 2049 2087 1971 2058 2084 2051 2078 2047 2044 2068 2053 1969 1930 1937 1938 2034 2023 1977 2029 2070 1984 1933 2061 2036 1913 1980 2010 1976 1988 2018 1966 1963 1980 2051 1919 1841 1910 1867 1888 1909 1896 1931 1952 1991 1965 1886 1873 1974 1912 1824 1880 1845 1846 1880 1984 1930 1933 1958 1894 1787 1819 1868 1860 1867 1864 1909 1909 1881 1758 1799 1838 1819 1732 1869 1800 1880 1853 1825 1868 1861 1857 1814 1834 1751 1871 1805 1863 1839 1829 1851 1786 1838 1842 1759 1744 1860 1789 1804 1803 1781 1777 1739 1781 1742 1728 1772 1767 1679 1793 1759 1720 1789 1711 1727 1622 1689 1713 1759 1710 1733 1819 1698 1684 1753 1786 1692 1675 1683 1678 1716 1732 1638 1648 1725 1676 1666 1636 1718 1607 1665 1645 1636 1739 1699 1708 1676 1730 1677 1720 1685 1691 1657 1721 1766 1714 1733 1796 1748 1808 1871 1910 1980 1978 2078 2213 2318 2421 2421 2360 2281 2116 2046 1889 1836 1697 1706 1706 1711 1661 1574 1610 1724 1608 1622 1604 1628 1652 1683 1607 1587 1610 1633 1705 1676 1550 1667 1615 1635 1514 1562 1544 1535 1587 1609 1651 1521 1538 1600 1542 1569 1591 1602 1535 1572 1579 1559 1577 1579 1530 1523 1543 1516 1557 1529 1600 1467 1626 1579 1540 1498 1531 1522 1629 1556 1561 1508 1465 1514 1544 1511 1413 1463 1464 1530 1467 1459 1531 1490 1491 1531 1538 1497 1521 1539 1497 1583 1490 1501 1414 1507 1505 1485 1515 1529 1388 1497 1479 1464 1454 1481 1439 1460 1477 1501 1505 1502 1520 1455 1465 1510 1430 1539 1510 1456 1502 1439 1425 1513 1441 1513 1511 1408 1504 1420 1489 1422 1407 1429 1444 1426 1452 1487 1438 1510 1411 1389 1444 1405 1367 1460 1442 1341 1439 1470 1425 1433 1374 1423 1436 1452 1459 1443 1430 1425 1438 1492 1536 1542 1514 1618 1668 1720 1816 1911 2012 2073 2018 1755 1574 1415 1450 1429 1431 1347 1352 1339 1422 1418 1367 1318 1413 1400 1339 1401 1381 1338 1395 1347 1398 1352 1358 1344 1354 1365 1341 1360 1381 1326 1349 1431 1323 1298 1359 1314 1373 1323 1366 1310 1303 1316 1385 1282 1375 1318 1371 1318 1332 1315 1260 1271 1351 1278 1294 1310 1347 1296 1374 1316 1338 1262 1284 1307 1344 1425 1417 1372 1511 1501 1479 1545 1423 1409 1395 1250 1310 1322 1322 1254 1306 1283 1285 1307 1315 1332 1320 1340 1286 1294 1328 1297 1203 1318 1286 1225 1240 1332 1258 1255 1315 1254 1217 1303 1231 1206 1285 1236 1209 1265 1266 1266 1268 1220 1216 1220 1253 1280 1194 1249 1282 1202 1252 1251 1278 1326 1326 1253 1257 1340 1225 1205 1278 1244 1292 1195 1230 1222 1177 1214 1221 1341 1222 1258 1263 1228 1250 1213 1254 1241 1285 1260 1238 1183 1175 1192 1237 1259 1228 1266 1227 1275 1240 1192 1204 1222 1251 1214 1232 1287 1220 1241 1262 1285 1323 1246 1258 1280 1260 1240 1237 1336 1274 1287 1300 1244 1367 1290 1268 1227 1278 1242 1289 1234 1242 1213 1189 1180 1251 1233 1180 1217 1252 1134 1167 1143 1169 1079 1142 1173 1148 1137 1128 1179 1154 1170 1134 1173 1167 1194 1208 1067 1127 1166 1155 1229 1134 1127 1106 1123 1146 1082 1135 1151 1090 1160 1151 1116 1163 1200 1229 1228 1203 1165 1234 1195 1194 1171 1153 1120 1113 1101 1134 1095 1148 1114 1133 1124 1150 1073 1110 1146 1144 1071 1085 1107 1086 1120 1089 1188 1059 1072 1132 1095 1104 1113 1038 1167 1136 1133 1100 1121 1114 1098 1082 1067 1063 1097 1102 1070 1064 1112 1129 1074 1139 1071 1130 1095 1097 1061 1091 1127 1065 1110 1130 1108 1083 1089 1091 1055 1178 1108 1112 1067 1102 1146 1095 1103 1173 1057 1091 1069 1079 1105 1064 1080 1116 1030 1020 1030 1072 1051 1064 1026 1139 1082 1119 1095 1042 1008 1068 1026 1082 1115 1053 1042 1096 1064 1135 1083 1099 1034 1175 1065 1146 1118 1047 1104 1036 1041 1071 1151 1063 1055 1071 1145 1117 1079 1065 1127 1065 1117 1135 1094 1075 1079 1068 977 1033 1088 1086 1023 1098 1095 1041 1050 997 1023 1072 1019 1022 1042 1062 1038 1022 1047 1035 1021 1019 1056 1042 1039 1083 1091 1039 1024 1124 1046 1087 1122 1039 1087 1036 1033 1047 1012 992 984 950 1052 1020 996 988 1056 991 1023 979 1029 1037 1026 1090 985 1048 1042 1025 981 971 993 1043 1020 1049 996 1024 1062 1034 1030 1056 1014 982 1003 1038 1031 1016 1024 974 986 1031 1006 1024 1042 1005 1022 1063 1002 987 1036 996 1054 1108 1066 1066 1128 1177 1192 1303 1395 1559 1686 1661 1655 1596 1576 1418 1333 1165 1165 1205 1139 1078 1103 1118 1043 1036 1098 1073 1001 1040 1043 1041 1061 1019 1017 1066 1071 1025 1051 1038 1043 1045 1035 1016 1035 1017 1003 964 996 950 1019 967 1024 1014 942 998 989 983 955 971 991 999 1012 927 998 1003 1019 979 1024 941 997 971 1021 1019 936 1025 1089 991 1030 1087 1023 981 1065 1066 1075 1096 1149 1262 1231 1326 1396 1401 1387 1387 1400 1268 1268 1218 1185 1156 1128 1056 1054 1016 1052 1028 992 1057 956 992 939 976 964 968 963 938 945 954 917 1028 972 983 1038 963 968 1026 952 957 963 960 947 1028 993 936 968 999 1014 1046 1009 1102 1046 1143 1206 1263 1384 1539 1479 1401 1290 1153 1146 1124 1121 1058 1013 996 967 1002 1009 1017 1058 997 970 920 967 975 955 1018 956 941 925 980 1002 937 940 883 931 990 948 972 926 940 956 891 928 970 963 964 998 937 1007 979 947 947 980 1043 1010 936 1013 1005 999 1036 994 993 1006 1016 976 1021 1093 1072 1041 1107 1072 983 1053 941 984 1025 877 960 930 937 968 980 1007 957 1004 1035 1091 1102 1072 1116 1122 1048 965 1036 993 952 975 974 1000 967 982 959 931 938 912 928 970 894 925 867 921 956 957 967 956 987 930 981 972 914 964 921 960 904 1001 933 1030 1036 997 992 1015 1045 1040 1025 1129 1163 1175 1168 1178 1089 1088 1133 1140 1098 1067 1072 1051 999 1074 1024 982 988 1024 992 1090 1041 1101 1133 1136 1192 1170 1214 1114 1186 1132 1135 1233 1266 1271 1338 1373 1369 1306 1205 1090 1113 1086 1054 1068 992 1071 966 1008 963 914 971 1030 979 979 961 982 954 961 927 904 924 955 944 969 942 948 1001 933 914 969 852 927 955 974 894 901 915 1023 972 1003 966 1007 1058 1053 1091 1048 1067 1020 1036 1051 1034 1055 1047 1083 1062 1077 1080 1091 1010 1075 1116 1216 1034 1114 1142 1215 1233 1343 1369 1391 1524 1656 1836 2229 2668 3368 4454 5300 5789 5789 5499 5972 6664 7750 8544 7791 5951 3807 2594 1953 1733 1592 1409 1373 1294 1309 1302 1186 1167 1085 1148 1105 1155 1115 1098 1170 1118 1144 1169 1147 1216 1247 1258 1371 1522 1762 1983 2341 2721 2830 2786 2745 2990 2900 2686 2135 1650 1381 1235 1202 1134 1149 1143 1102 1050 1085 1102 1155 1137 1097 1133 1082 1118 1051 1024 1049 944 967 971 968 948 952 971 1000 993 970 976 943 1036 1002 1038 1043 1043 1006 981 1053 1043 1074 1017 1111 1056 1110 1152 1160 1102 1114 1253 1167 1159 1114 1053 1032 1101 991 1013 1019 1002 999 910 1014 1031 1093 991 1015 1099 1018 1012 1039 1114 1147 1122 1121 1147 1175 1211 1221 1225 1238 1187 1116 1173 1196 1183 1202 1185 1168 1274 1213 1229 1242 1159 1245 1293 1289 1329 1294 1380 1401 1511 1482 1578 1585 1797 1838 1991 2045 2318 2324 2429 2664 2872 3167 3730 4051 5067 6134 7630 9696 12573 15010 15940 12938 8699 5395 3883 3336 3166 2990 2891 2902 2989 3085 3271 3851 4689 5722 6697 7736 7417 6997 6605 6913 7654 8757 9733 9874 7989 5501 3748 2862 2352 2147 2068 1911 1849 1732 1707 1659 1667 1589 1546 1547 1543 1588 1499 1532 1590 1409 1539 1399 1542 1454 1488 1559 1560 1716 1795 1873 2068 2135 2105 2113 2036 2081 1934 1913 1792 1781 1829 1735 1748 1782 1768 1742 1721 1736 1650 1733 1846 1856 1825 1815 1844 1938 1993 2107 2203 2354 2550 2686 2744 2811 2752 2781 2766 2732 2685 2620 2638 2485 2328 2355 2330 2144 2142 2030 1861 1852 1755 1703 1738 1671 1732 1773 1787 1809 1833 1910 2056 2215 2399 2902 3443 4318 5868 7562 9594 11107 11686 11438 10095 7847 5325 3581 2623 2172 1929 1725 1661 1618 1425 1483 1409 1401 1417 1309 1326 1389 1297 1290 1224 1228 1278 1199 1160 1180 1135 1064 1031 965 1025 1028 1003 965 988 1013 955 967 974 983 1017 1018 1007 1093 1039 1051 1048 980 981 947 968 927 988 906 964 954 966 914 931 942 934 907 825 900 852 884 950 883 882 938 934 898 924 863 885 879 877 875 873 956 882 920 873 879 971 956 966 917 947 963 972 937 1021 925 1005 1024 933 953 922 896 917 841 912 892 928 907 904 874 852 930 855 905 900 943 977 980 939 945 985 991 987 973 973 1019 987 1005 1031 994 1077 1067 1114 1150 1224 1327 1453 1613 1755 1989 2152 2124 2050 1898 1601 1401 1211 1228 1179 1153 1111 1175 1182 1113 1019 1016 999 987 998 937 950 932 942 968 1003 989 950 1000 992 988 1039 1023 960 1047 966 1001 944 923 1045 869 923 985 911 920 926 908 908 919 874 901 916 931 896 872 867 945 910 819 845 875 909 920 941 927 930 890 938 870 931 934 982 935 934 900 920 954 954 947 967 985 928 900 887 881 907 907 918 914 868 923 865 914 853 934 909 884 915 904 903 869 887 907 917 879 940 914 949 925 904 982 1008 1026 1050 1116 1202 1361 1604 1792 1866 2014 1809 1903 1954 2052 2312 2689 2772 2632 2250 1823 1734 1511 1462 1376 1290 1236 1175 1157 1148 1164 1129 1165 1195 1268 1147 1164 1106 1107 1126 1119 1164 1148 1127 1165 1226 1182 1204 1209 1244 1219 1198 1205 1172 1148 1139 1128 1081 1036 1113 1082 1115 1066 1106 1050 1087 1127 1126 1062 1052 1050 1001 1012 934 902 944 883 914 869 869 920 895 910 893 871 802 892 909 884 898 856 870 832 832 824 828 836 813 861 905 860 856 876 823 839 851 847 859 886 839 852 824 855 863 854 850 830 870 871 855 875 869 963 891 821 924 890 926 954 950 993 1035 1029 1116 1017 1069 1179 1129 1203 1217 1202 1279 1299 1319 1243 1287 1425 1296 1309 1389 1342 1494 1444 1558 1536 1645 1700 1787 1786 2000 2036 2527 2918 3810 4717 5786 6707 6749 6053 5062 3916 3301 2771 2353 1883 1735 1565 1532 1540 1497 1508 1654 1824 1956 2277 2339 2433 2147 2014 1744 1769 1659 1682 1581 1403 1469 1315 1202 1128 1152 1069 1082 1078 1118 1022 1035 1041 1002 940 1028 968 1018 963 1043 940 938 998 981 881 942 947 943 947 989 942 945 868 930 967 967 922 951 893 870 955 943 928 917 921 881 963 914 907 964 986 1002 1067 975 1110 1085 1164 1201 1231 1379 1478 1650 1888 2205 2504 2764 2770 2373 2138 1818 1635 1516 1346 1438 1309 1334 1270 1199 1199 1283 1202 1253 1209 1212 1069 1211 1175 1059 1055 1008 1013 1021 1018 1015 964 935 921 950 940 1013 933 948 905 904 954 917 901 956 1013 976 982 985 1006 1029 1004 1058 1037 1067 1090 1090 1185 1126 1176 1243 1171 1196 1224 1268 1281 1185 1229 1312 1243 1262 1255 1334 1295 1270 1265 1208 1259 1248 1287 1241 1202 1136 1133 1127 1091 1059 1153 1113 1086 991 982 1062 1103 1031 1000 985 1033 1015 983 992 1069 1045 997 1024 971 1023 953 959 998 921 968 905 947 968 898 910 947 889 867 829 895 835 853 907 834 843 883 769 823 883 816 833 872 852 836 861 865 862 819 939 934 923 933 881 923 876 865 909 895 881 882 857 873 893 863 834 869 904 867 918 894 950 869 911 982 989 1005 1121 1167 1290 1430 1445 1508 1422 1425 1322 1285 1274 1495 1488 1644 1641 1725 1594 1546 1343 1200 1025 1028 930 869 937 865 914 895 891 837 873 852 792 840 823 876 863 828 830 829 852 851 836 843 871 878 797 869 790 808 867 925 850 896 917 847 886 890 888 905 945 889 928 876 970 879 1001 1065 1097 1144 1165 1273 1455 1564 1619 1643 1595 1735 1754 1984 2174 2409 2437 2318 2068 1830 1664 1578 1473 1557 1541 1418 1456 1523 1470 1414 1404 1474 1498 1401 1450 1383 1375 1352 1356 1325 1274 1198 1128 1193 1113 1015 1049 1069 1028 975 1023 973 1002 1017 965 949 984 957 893 922 918 917 920 915 905 933 916 812 907 847 891 851 855 872 829 850 817 806 845 856 850 829 890 876 870 817 817 833 871 812 825 780 778 809 751 819 817 801 817 839 840 826 840 888 830 833 861 792 829 779 794 809 776 772 806 833 830 891 819 841 894 887 845 909 911 877 891 919 934 937 932 955 931 949 905 968 932 1005 945 922 928 896 888 919 905 855 866 886 859 840 875 855 883 887 832 857 836 877 882 859 857 898 841 868 954 963 948 1036 1097 1121 1192 1221 1267 1364 1358 1423 1463 1394 1348 1265 1299 1249 1254 1270 1248 1331 1382 1383 1412 1411 1452 1424 1336 1371 1444 1503 1490 1504 1383 1220 1202 1079 1119 1037 957 961 938 937 923 856 933 858 885 895 851 820 834 902 911 855 920 901 870 865 936 920 849 907 945 873 898 863 849 847 857 875 900 885 860 890 894 900 934 888 934 961 976 949 973 967 932 999 965 894 888 865 863 887 884 892 902 895 852 862 887 872 846 818 813 826 888 892 915 877 862 867 914 879 888 912 927 971 952 964 994 1000 1120 1127 1183 1234 1294 1456 1659 2032 2486 3121 3943 4947 5620 6128 5926 5294 4175 3226 2736 2402 2442 2613 2643 3024 3007 3137 2677 2338 1992 1570 1300 1198 1077 1030 1063 986 972 1001 992 892 982 959 890 886 869 926 855 842 900 882 873 847 874 837 862 785 843 899 827 860 870 818 826 885 853 814 845 813 869 818 824 793 859 846 868 870 874 804 886 905 888 872 884 949 909 921 915 963 877 925 901 901 902 877 838 883 896 917 918 877 854 904 915 900 853 840 830 891 925 882 893 847 887 863 876 840 854 844 840 820 817 873 860 850 826 823 741 872 828 780 774 775 805 805 789 852 797 819 836 823 854 855 818 845 885 894 907 957 956 959 981 948 1009 943 999 985 967 910 909 949 907 960 949 970 957 983 963 931 905 875 894 829 818 818 844 800 821 830 811 785 855 812 820 798 748 821 795 821 800 828 746 774 760 758 816 764 774 849 785 780 763 778 754 866 776 779 812 771 812 805 822 835 822 830 805 832 767 800 801 740 787 780 807 749 804 794 768 785 791 782 796 742 758 802 742 785 807 791 761 780 722 835 788 811 776 795 798 754 769 818 800 778 803 849 830 861 866 858 847 934 906 974 972 1028 1021 1081 1086 1123 1163 1048 1064 1008 1018 1005 1004 959 955 942 976 1022 1051 1067 1009 1017 1075 1099 1162 1095 1195 1237 1323 1448 1545 1674 1965 2176 2208 2418 2312 2229 2269 2557 2721 2908 3079 2801 2602 2128 1722 1472 1301 1209 1181 1140 1068 1030 1073 1030 1019 951 967 974 908 950 960 884 949 938 873 844 857 896 884 856 874 834 887 936 828 911 836 901 871 871 898 876 866 896 884 933 915 873 874 934 905 886 917 863 841 920 881 870 805 826 813 891 879 857 877 883 884 899 862 871 850 898 909 874 859 871 941 873 931 868 939 975 921 945 941 881 936 943 855 836 868 862 872 889 859 920 871 851 966 884 969 874 903 951 936 987 1032 991 1023 1079 1050 1104 1067 1097 1062 982 1098 1045 1042 1031 1020 1036 1037 1016 993 980 973 968 956 857 917 917 857 886 844 868 826 828 793 806 872 830 837 863 830 882 870 877 863 875 818 941 934 868 926 928 910 933 952 998 998 979 970 907 980 989 955 893 939 916 890 923 939 883 893 928 893 860 934 945 899 885 904 893 904 852 923 927 907 963 917 973 1074 1053 1113 1167 1216 1295 1414 1578 1826 1943 2335 2534 2689 2812 2736 2344 2044 1662 1383 1209 1163 1075 1091 1045 1031 1026 1013 934 1004 1023 968 996 960 947 971 902 968 904 980 979 938 967 1059 1016 1055 1037 1049 1022 1002 918 991 1000 974 965 953 1020 1074 1061 1055 1021 1023 1051 988 940 884 944 898 883 933 896 910 898 861 861 900 863 930 911 936 984 885 951 949 973 911 935 918 916 905 887 877 886 830 812 816 878 886 801 818 829 800 842 871 844 901 870 934 937 890 877 879 901 884 921 875 835 856 869 860 970 971 1046 1091 934 1024 1064 1014 1002 1021 1016 1024 1028 1059 1147 1089 1169 1145 1269 1355 1462 1592 1749 2012 2428 2673 2988 3127 3201 3159 3202 3095 3141 2944 2963 2836 2661 2702 2644 2698 2536 2443 2258 2095 1777 1763 1701 1620 1704 1649 1626 1563 1459 1333 1293 1086 1047 1045 1009 957 975 967 961 941 998 981 947 961 971 877 963 956 972 967 941 972 954 928 930 909 861 860 851 909 852 814 851 838 856 850 823 810 846 795 888 849 904 932 1004 1097 1061 1086 1106 1075 1049 1004 931 936 969 943 1051 1067 1172 1184 1312 1343 1556 1594 1548 1473 1445 1332 1193 1071 967 986 963 924 941 941 902 974 961 924 896 919 878 800 803 794 814 795 795 777 749 785 770 822 791 834 806 814 755 780 775 821 800 801 738 746 747 788 761 745 790 733 765 765 735 788 747 782 758 733 719 747 753 704 784 757 771 790 789 696 785 781 784 774 738 778 784 775 833 819 738 749 802 767 805 775 793 808 852 808 852 857 881 839 908 928 899 859 932 837 878 840 800 770 877 846 830 846 771 803 780 801 722 782 744 809 792 774 791 774 813 832 802 814 838 795 803 760 830 780 813 816 758 803 779 807 787 767 800 730 759 793 818 712 749 779 762 790 771 818 778 788 768 775 829 797 758 719 790 761 770 791 840 849 855 844 869 813 849 843 850 872 811 835 835 865 784 817 790 845 779 772 824 765 767 795 726 765 803 749 738 781 763 756 778 809 748 801 853 780 778 732 850 849 798 814 844 813 873 834 811 852 858 838 863 849 877 969 965 969 1033 1063 1118 1255 1271 1241 1315 1189 1056 996 934 900 791 820 796 751 793 850 772 828 786 761 709 664 714 744 768 757 780 794 761 740 774 792 784 849 812 851 851 867 819 820 765 829 886 857 885 951 908 836 869 834 778 857 845 843 817 861 889 900 920 925 973 1024 940 999 970 896 866 819 877 854 860 834 867 839 800 857 845 835 830 800 843 794 786 809 821 814 794 778 820 869 737 728 741 801 796 737 761 777 749 738 776 758 744 714 768 710 770 746 743 741 745 737 713 743 735 691 764 709 729 768 741 739 823 808 806 822 762 787 843 813 796 826 764 760 805 810 822 743 805 803 803 808 823 759 810 827 793 733 774 768 742 767 792 759 805 827 722</intensities>
			</dataPoints>
		</scan>
	</xrdMeasurement>
</xrdMeasurements>
