<?xml version="1.0" encoding="UTF-8"?>
<xrdMeasurements xmlns="http://www.xpdd.org/xrdml/1.0">
  <xrdMeasurement count="1" measurementType="Scan" status="Completed">
    <sample id="sample-1"><name>PbSO4</name></sample>
    <scan count="1">
      <xrdElement id="elem-1">
        <commonParameters>
          <scanType>continuous</scanType>
          <tubeAnode>Cu</tubeAnode>
          <wavelengths>
            <kAlpha1>1.5405</kAlpha1>
            <kAlpha2>1.5443</kAlpha2>
          </wavelengths>
          <tubeVoltage>45</tubeVoltage>
          <tubeCurrent>40</tubeCurrent>
          <goniometer>
            <thetaMin>15.0</thetaMin>
            <thetaMax>140.0</thetaMax>
            <stepSize>0.02</stepSize>
            <scanAxis>2Theta/Theta</scanAxis>
          </goniometer>
        </commonParameters>
        <dataType>ASCII</dataType>
        <intensities>154.53 158.82 163.29 167.96 172.82 177.90 183.20 188.74 194.54 200.60 206.96 213.62 220.60 227.93 235.63 243.72 252.24 261.21 270.67 280.65 291.18 302.32 314.11 326.60 339.85 353.92 368.88 384.80 401.78 419.90 439.27 460.01 482.26 506.15 531.86 559.58 589.51 621.92 657.06 695.26 736.89 782.37 832.19 886.92 947.22 1013.88 1087.83 1170.16 1262.20 1365.53 1482.08 1614.21 1764.81 1937.50 2136.82 2368.55 2640.09 2961.13 3344.46 3807.29 4373.22 5075.27 5960.79 7099.62 8598.15 10624.76 13458.46 17592.22 24089.04 37194.56 80352.00 234317.10 591605.42 996228.88 1038391.11 821565.82 521911.88 243079.12 92133.29 39713.07 24040.93 17325.97 13240.78 10456.56 8467.31 6996.61 5878.61 5008.87 4318.92 3762.39 3306.95 2929.50 2613.19 2345.48 2116.91 1920.20 1749.68 1600.91 1470.33 1355.10 1252.89 1161.82 1080.33 1007.12 941.10 881.36 827.12 777.74 732.65 691.37 1419.94 1393.64 1370.20 1734.31 1720.11 1708.13 1994.72 1989.95 1986.98 2134.57 2136.48 2139.87 2144.66 2150.77 2158.14 2166.70 2176.41 2187.22 2199.09 2211.97 2225.84 2240.67 2256.44 2273.12 2290.70 2309.16 2328.49 2348.67 2369.71 2391.59 2414.31 2437.87 2462.27 2487.51 2513.59 2540.52 2568.29 2596.93 2626.43 2656.81 2688.08 2720.25 2753.33 2787.34 2822.29 2858.21 2895.10 2933.00 2971.91 3011.88 3052.90 3095.02 3138.26 3182.65 3228.21 3274.98 3322.99 3372.28 3422.87 3474.81 3528.13 3582.89 3639.11 3696.85 3756.15 3817.06 3879.64 3943.93 4010.00 4077.90 4147.70 4219.46 4293.24 4369.13 4447.20 4527.52 4610.18 4695.26 4782.85 4873.05 4965.96 5061.69 5160.34 5262.03 5366.88 5475.02 5586.59 5701.72 5820.57 5943.30 6070.07 6201.06 6336.45 6476.44 6621.24 6771.06 6926.14 7086.73 7253.08 7425.47 7604.19 7789.57 7981.91 8181.58 8388.96 8604.43 8828.44 9061.41 9303.86 9556.28 9819.23 10093.31 10379.14 10677.42 10988.86 11314.26 11654.46 12010.37 12382.97 12773.33 13182.57 13611.95 14062.80 15107.18 15611.75 16142.67 16987.35 17579.90 18205.00 18865.10 19562.91 20301.37 21083.73 21913.58 22794.86 23731.97 24729.77 25793.64 26929.62 28144.43 29445.61 30841.60 32341.94 33957.38 35700.11 37583.99 39624.81 41840.66 44252.31 46883.76 49762.77 52921.70 56398.38 60237.29 64491.04 69222.20 74505.69 80431.82 87110.28 94675.36 103292.98 113170.09 124567.52 137817.93 153351.05 171730.15 193705.25 220293.39 252902.47 293527.32 345072.42 411901.84 500820.53 622921.32 797404.78 1063400.00 1557359.49 2989602.25 7916219.33 19840191.83 34786752.16 37485339.98 30373461.41 24851810.75 17862672.91 13605338.25 15175333.25 16024245.70 12957632.47 10385998.21 7278642.03 3783092.22 1689171.95 889467.10 612936.78 476982.55 387432.85 322608.55 273723.71 235766.22 205600.17 181166.24 161059.32 144289.89 130142.23 118086.74 107723.78 98746.63 90916.30 84044.10 77979.27 72600.09 67807.33 63519.37 59668.58 56198.47 53061.58 50217.77 47632.90 45277.79 43127.36 41151.45 39348.45 37689.18 36167.98 34768.10 33478.57 32289.76 31193.16 30181.23 29247.30 28385.42 27590.34 27183.40 26511.87 25894.60 25490.93 24974.37 24503.23 24075.21 23688.28 23340.64 23030.75 22757.27 22519.09 22315.25 22145.00 22007.77 21903.14 21830.88 21790.93 21783.37 21808.48 21866.71 21958.69 22085.24 22247.39 22446.39 22683.71 22961.11 23280.59 23644.50 24055.51 24516.68 25031.51 25604.00 26238.69 26940.76 27716.15 28571.60 29514.86 30554.81 31701.65 32967.17 34364.99 35910.94 37623.46 39524.16 41638.46 43996.40 46633.74 49593.22 52926.31 56695.43 60976.81 65864.38 71474.91 77955.01 86439.73 95280.32 105726.88 118190.45 133700.85 152063.15 174805.76 203440.26 240191.84 288444.22 353542.71 444328.46 576453.54 784360.47 1202940.48 2500158.85 6723211.50 15842230.52 25311099.78 24530254.54 18980310.86 16245333.42 11667978.72 5878097.87 2408826.79 1122626.02 707403.68 520499.18 404880.50 325188.36 267687.01 224816.44 191999.53 166326.59 145874.74 129331.03 115773.86 104540.73 95145.47 87224.90 80503.38 74768.93 69856.53 65636.49 62006.02 58883.15 56202.30 53910.87 52726.51 51104.79 49771.44 49084.76 48279.15 47719.90 47403.39 47331.09 47509.79 47952.14 48677.45 49712.99 51095.73 52874.83 55115.25 57902.68 61350.74 65611.54 70891.13 77473.22 85756.03 96311.37 109982.92 128055.83 152563.32 186873.50 236971.07 316229.85 477642.72 977220.07 2568699.39 5918433.77 9263945.63 8769097.44 6657001.02 5851215.85 4522010.52 2421650.27 1026673.80 474429.13 296449.03 221039.24 175899.57 145190.83 123275.15 107138.65 94973.72 85639.53 78387.63 72711.19 68258.13 64778.93 62094.23 60074.06 58624.31 57677.79 57188.18 57126.16 57476.87 58238.62 59422.44 61052.54 63167.66 65823.44 69096.10 73087.92 77935.07 83819.21 90984.35 99762.14 110610.51 124174.04 141381.50 163608.48 192960.08 232785.35 288672.05 370718.22 503031.55 787745.14 1693465.14 4438286.96 9735459.00 14184593.36 12533809.70 9425511.00 8559769.74 6736953.35 3636831.67 1552524.89 719440.32 448653.27 333845.57 265270.25 218680.34 185480.26 161085.37 143940.07 129932.34 119104.26 110683.43 104731.32 99675.43 95833.16 93004.13 91041.87 89839.96 89322.55 89438.00 90154.55 91103.62 92996.61 95314.70 98445.29 102255.60 106809.62 112054.26 118374.26 125769.81 134348.64 144472.68 156359.84 170380.11 187015.39 206901.31 230888.54 260135.32 296249.83 341516.55 399266.94 474510.77 575057.80 713617.55 912101.08 1214319.70 1761149.42 3230045.50 8039410.12 19853276.31 35862059.00 39728997.14 29685374.74 24222798.26 22939340.86 15883356.25 7713982.90 3246978.24 1650145.14 1100952.49 830594.65 657706.23 537170.50 449648.89 384198.15 334111.06 295084.54 264255.44 239660.71 219921.13 204048.93 191326.44 181228.21 173369.32 167471.01 163337.74 160842.19 159916.04 160545.46 162770.54 166688.85 172463.53 180336.86 190651.75 203883.93 220690.86 241986.17 269055.52 303741.44 348747.23 408155.99 488354.90 599770.03 760455.12 1007086.03 1460969.19 2698518.56 6691211.85 16211573.03 28598900.34 30805998.86 22511952.91 18324528.12 17993998.92 13056291.61 6549715.78 2778152.41 1380418.64 903848.55 676560.14 532783.74 432538.77 359497.21 304542.59 262108.89 228631.56 201738.82 179801.01 161667.22 146505.28 133700.95 122792.59 113427.72 105333.33 98295.24 92143.55 86742.09 81980.62 77769.24 74034.06 70713.88 67757.74 65123.00 62773.71 60679.58 58814.88 57157.76 55689.63 54856.58 53726.00 52743.68 51899.91 51186.54 50829.88 50360.57 50004.88 49759.36 49621.53 49589.78 49663.36 49842.37 49864.23 50259.64 50765.77 51254.47 51994.52 52858.76 53853.80 54987.46 56268.93 57708.90 59319.81 61116.03 63114.21 65333.59 67796.44 70528.58 73560.01 76925.69 80666.42 84830.14 89473.32 94662.81 100478.16 107014.61 114386.90 122734.21 132226.63 143649.33 156117.87 170529.30 187299.24 207248.97 230502.69 258287.96 291792.59 332732.34 383474.39 447423.86 529560.08 637517.42 783365.74 987137.84 1284793.37 1760212.67 2747966.29 5717700.82 14493197.92 31723808.58 47462778.34 42325615.77 29110102.31 25903796.83 26579768.23 18928934.36 9388803.34 4026378.35 2047216.02 1353247.36 1012467.27 794658.08 642140.51 530663.63 446574.75 381502.27 329967.03 288575.22 254752.89 226698.57 203241.28 183392.05 166443.48 151854.42 139204.91 128164.97 118472.26 109916.13 102325.74 95561.38 89623.32 84186.22 79284.40 74850.58 70885.34 67225.79 63887.44 60834.69 58036.83 55467.20 53102.65 50922.95 48910.36 47049.28 45325.99 43728.31 42245.49 40867.92 39587.08 38395.36 37285.93 36252.68 35290.14 34393.38 33557.97 32779.91 32055.62 31381.84 30755.66 30174.44 29635.81 29137.65 28678.02 28255.23 27867.74 27514.20 27193.42 26904.34 26646.06 26267.24 26069.50 25900.63 25684.84 25573.23 25489.67 25434.14 25406.72 25407.61 25437.18 25495.86 25584.26 25703.13 25853.37 26036.04 26252.41 26503.89 26792.14 27119.04 27486.75 27897.68 28354.61 28860.64 29419.32 30034.62 30711.10 31453.88 32268.79 33162.49 34142.55 35217.65 36397.75 37694.32 39120.60 40691.97 42426.33 44344.66 46471.62 48836.39 51473.67 54425.02 57740.56 61481.12 65721.20 70552.78 76090.57 82479.11 89902.55 98598.66 108878.68 121156.54 135992.45 154159.97 176751.71 205351.54 242325.72 291335.74 358288.88 452817.41 595428.23 843652.42 1453913.05 3333624.32 8007926.32 14952576.54 17784654.29 13049210.94 8931301.87 9080158.46 9658879.64 6781816.92 3373992.67 1495769.24 797916.82 546768.81 421699.00 342088.67 287023.48 247576.52 218718.93 197380.27 181608.01 170127.02 162093.81 156954.68 154362.22 154126.59 156189.58 160615.24 167594.56 177465.24 190749.79 208220.16 231003.55 260756.18 299955.76 352409.73 424179.71 525369.43 674325.49 915457.42 1426072.06 2930943.72 7145258.11 15007060.38 21702869.86 18708052.82 12122730.95 10276841.08 12075721.42 11036981.27 6931646.37 3516497.16 1783756.08 1190935.74 1046273.59 872640.76 606827.63 406062.93 297939.62 241134.97 204691.64 177563.50 156240.45 139069.26 125009.81 113348.59 103577.54 95325.19 88314.38 82335.07 77226.42 72864.55 69154.11 66022.47 63415.72 61296.00 59640.02 58438.55 57696.83 57436.14 57696.79 58542.98 60070.43 62418.44 65788.72 70475.81 76917.35 85780.25 98114.98 115646.96 141403.73 181884.31 259748.78 472242.21 1100397.08 2452974.67 4038267.23 4070376.64 2709627.37 1933779.34 2151836.57 2310099.74 1605199.76 802540.39 364438.53 199865.41 138884.15 107666.99 87364.80 72969.08 62316.27 54179.02 47800.40 42691.39 38523.94 35070.95 32170.90 29706.17 27589.39 25754.48 24150.63 22738.25 21486.09 20369.19 19367.40 18464.31 17646.43 16902.58 16223.44 15601.16 15029.11 14501.65 14013.94 13561.83 13141.72 12750.51 12385.47 12044.22 11724.67 11424.96 11143.48 10878.75 10629.51 10394.59 10172.95 9963.69 9765.95 9579.00 9402.15 9234.80 9076.39 8926.41 8234.46 8103.92 7980.52 7587.50 7479.36 7377.42 7281.41 7191.11 7362.41 7285.45 7213.66 7146.89 7085.01 7155.83 7104.64 7058.03 7015.92 6978.26 6944.99 6916.06 6891.46 6871.16 6855.16 6843.47 6836.10 6833.09 6834.48 6840.32 6850.69 6865.66 6885.33 6909.80 6939.22 6973.71 7013.43 7058.57 7109.32 7165.90 7228.54 7297.52 7373.13 7455.68 7545.54 7708.19 7814.50 7929.41 8053.44 8187.15 8363.67 8519.01 8686.12 8865.83 9059.09 9266.90 9490.43 9730.94 9989.84 10268.71 10569.32 10893.65 11243.91 11622.63 12032.62 12477.09 12959.70 13484.60 14056.55 14681.02 15364.31 16113.73 16937.78 17846.38 18851.21 19966.04 21207.26 22594.43 24151.13 25905.94 27893.75 30157.62 32751.09 35741.46 39214.26 43279.57 48166.53 53895.21 60806.77 69253.70 79731.32 92996.50 110026.98 132522.59 163308.11 207703.65 275653.37 387452.33 615073.79 1243928.88 2893457.21 5773414.76 7961860.56 6576292.73 4006450.13 3062096.59 3770749.58 4230954.36 3027866.99 1549583.52 705444.09 374925.70 251713.79 190301.39 151473.03 123965.76 103823.67 88618.78 76861.15 67591.98 60368.52 54357.20 49442.74 45401.66 42071.14 39331.93 37097.17 35305.23 33915.30 32905.21 32271.11 32029.42 32221.49 32922.50 34257.38 36429.34 39772.51 44855.54 52742.26 66170.31 95743.63 181588.99 405275.69 794574.00 1093904.22 909853.14 555305.96 413033.03 502842.85 591632.80 452223.80 245588.51 118627.93 66716.80 47539.72 38375.02 32650.50 28672.50 25783.72 23630.31 21985.20 20713.24 19721.62 18946.68 18345.87 17882.54 17535.43 17287.21 17125.00 17039.25 17022.94 17071.02 17180.07 17347.97 17573.75 17857.45 18200.07 18603.54 19070.67 19605.26 20212.12 20897.22 21403.12 22269.68 23240.81 24328.98 25416.57 26787.39 28318.43 30057.79 32025.88 34261.25 36811.42 39729.95 43101.94 47015.84 51592.18 56987.69 63409.14 71133.80 80540.54 92158.04 106741.99 125403.00 149826.70 182669.87 228321.62 294685.21 400395.28 614236.13 1198194.41 2764143.85 5734724.37 8630653.71 7910170.41 4910660.95 3183122.90 3508428.37 4621722.33 4241111.80 2551825.73 1218652.84 590065.75 356970.07 259135.80 203393.71 165963.21 139265.13 119581.87 104727.66 93335.74 84519.18 77687.70 72443.89 68522.86 65757.09 64057.57 63353.99 63810.23 65523.22 68771.10 74001.98 82070.45 94346.72 113599.52 147871.08 229412.36 461854.10 1012730.12 1845428.68 2268981.80 1704179.04 1005978.73 781904.87 1001190.43 1220567.48 967547.71 540491.12 264492.06 146950.19 103259.06 83060.01 70809.29 62712.01 56817.52 52564.13 49476.66 47255.91 45707.99 44705.60 44165.75 44036.84 44291.07 44920.44 45935.16 47364.26 49258.27 51694.54 54786.29 58697.33 63666.00 70045.11 78370.59 89484.41 104768.43 126671.38 160696.02 226053.40 396374.30 855262.82 1768309.77 2779664.42 2741526.00 1774747.60 1082296.75 1052038.88 1436637.41 1561587.57 1097275.32 590870.31 311796.96 204155.14 165936.59 149830.02 142763.53 141304.56 144224.17 151097.01 162006.24 177479.23 198542.29 226896.30 265270.43 318094.12 392834.70 503421.33 685547.47 1075005.58 2146162.08 4846459.47 9519238.87 13283920.30 11263729.79 6737451.32 4357153.27 4896673.58 6737728.30 6662711.50 4260693.15 2114407.05 1021658.04 601205.58 430428.74 337505.42 276344.80 233180.84 201689.64 178239.29 160596.86 147349.25 137599.25 130801.96 126682.20 125207.68 126613.35 131492.67 141006.62 157406.35 186172.66 247226.03 413786.08 853321.81 1686961.15 2534379.21 2401537.79 1553763.17 962003.75 923382.98 1254203.96 1408956.51 1040406.28 586485.42 313484.13 203987.40 180927.11 205082.14 242736.60 230984.71 174184.50 132037.25 124016.26 140397.59 151239.03 130726.27 102251.27 84662.85 77331.34 74808.68 74014.72 73989.10 74467.35 75346.09 76571.27 78113.47 79958.59 82102.98 84550.95 87313.36 90407.00 93854.38 97683.94 101930.47 106635.85 111850.13 117632.43 124054.18 131199.23 139168.08 148081.26 157982.22 169251.45 182001.61 196497.56 213017.19 232075.59 254202.45 279953.40 310261.41 346274.27 389542.06 442182.93 507159.43 588748.85 693162.75 829997.42 1014451.49 1272224.15 1654546.73 2309319.52 3763513.10 7468923.92 15591189.14 28072653.11 37678053.69 37819196.25 28436412.89 18576422.31 15913179.34 18912577.81 20914704.88 18501763.81 12064992.53 6342413.03 3234632.37 1926629.58 1373929.75 1076970.38 882788.18 745342.85 644683.74 569232.60 512024.60 468483.05 435614.99 411385.65 394509.58 384054.62 379625.81 381149.47 388877.49 403459.63 426038.31 458436.95 503492.05 565652.13 652191.03 776264.69 965593.51 1288800.22 1952392.23 3555509.57 7158456.42 13023679.83 17451404.38 15006258.16 10607161.47 10464123.33 15850655.67 22586626.65 21896467.38 14401788.59 8172965.26 6241683.99 7486415.69 8649421.82 6759008.53 3871199.38 1989662.73 1142236.22 795957.57 621175.74 508662.56 427911.78 367184.13 320095.31 282696.66 252410.46 227487.49 206701.94 189171.21 174244.98 161434.58 150366.51 140751.13 132361.01 125015.76 118571.04 112910.63 107940.56 103584.79 99781.88 96482.55 93647.92 91248.08 89261.21 87672.95 86476.15 85670.79 85264.35 85272.38 85719.56 86641.20 88085.36 90115.88 92699.39 96180.23 100583.71 106098.35 112974.75 121491.65 132227.77 145766.56 163022.70 185332.72 214709.33 254293.44 309207.78 388484.63 512137.21 746560.32 1332039.97 2855103.77 5891974.17 9501369.40 9909199.51 6632330.41 3708229.20 2766805.62 3616631.29 5145482.92 5174408.41 3394541.34 1740050.66 857786.72 501247.10 353907.82 274448.90 222124.43 184766.44 156971.80 135656.48 118902.63 105461.56 94460.44 85371.86 77746.13 71276.17 65732.87 60927.28 56755.08 53382.98 50157.16 47295.16 44743.19 42457.35 40401.52 38545.75 37008.74 35483.43 34094.50 32826.90 31667.81 30606.27 29632.86 28739.47 27919.13 27165.81 26474.32 25840.20 25259.61 24729.31 24246.54 23809.02 23414.92 23062.80 22751.62 22480.74 22249.91 22059.26 21909.39 21801.32 21736.62 21717.41 21746.48 21827.39 21964.64 22124.90 22393.23 22739.10 23173.28 23709.20 24344.31 25139.18 26101.64 27267.25 28682.60 30409.75 32532.66 35167.30 38477.36 42699.97 48189.00 55491.19 65487.82 79700.30 101311.47 140118.55 231441.72 467954.11 964237.20 1634541.43 1887329.18 1397255.63 814851.51 528097.83 575127.37 841965.65 1034964.28 859431.46 557548.04 335872.09 201222.99 129810.45 97789.77 89761.29 95231.79 98474.07 85207.48 67907.65 57036.64 52778.59 52291.42 53757.90 56737.71 61386.39 67936.35 77093.04 89921.17 108236.10 135341.98 179478.84 269399.69 499487.06 1059653.70 2057671.19 3021176.14 2810482.39 1766120.08 982985.55 762933.04 1021478.71 1495200.30 1595942.95 1106943.71 590263.89 294399.46 169035.97 117633.51 91000.03 73856.93 61714.41 52725.74 45860.28 40482.90 36180.42 32680.62 29794.77 27376.43 25374.57 23628.07 22122.98 20818.06 19678.49 18677.52 17793.79 17010.00 16334.08 15710.63 15151.86 14649.75 14197.58 13789.67 13421.19 13088.03 12786.66 12587.93 12342.13 12120.22 11920.24 11877.50 11717.72 11598.55 11509.70 11519.73 11425.32 11344.73 11345.75 11291.65 11249.78 11231.44 11273.04 11266.58 11271.29 11287.05 11313.82 11351.60 11400.44 11460.45 11531.79 11614.68 11709.40 11816.27 11935.70 12068.13 12214.10 12374.20 12549.11 12739.59 12946.51 13170.83 13413.62 13676.08 13959.57 13968.84 13968.94 14329.29 14717.84 15136.96 15440.35 15930.06 16293.93 16868.37 17491.25 18167.96 18904.89 19709.73 20592.02 21564.10 22643.85 23866.21 25329.35 27289.86 30132.83 33848.48 37017.92 37908.41 38205.56 39561.00 42262.54 46167.21 50893.59 55452.63 59603.23 64569.60 71018.86 79133.40 89102.81 101339.85 116524.57 135667.98 160273.85 192642.04 236423.38 297766.91 388568.90 540888.23 868274.20 1698517.18 3565149.72 6527322.95 8720018.06 7332058.87 4390287.97 2443080.86 1950026.97 2650793.69 3995202.22 4557162.54 3370132.94 1868151.10 933345.66 513997.69 341956.93 256885.98 203871.30 166929.57 139809.02 119265.25 103299.81 90628.66 80394.33 72005.44 65063.72 59222.77 54277.74 50058.23 46433.57 43302.10 40583.78 38214.88 36144.18 34330.14 32738.86 31342.47 30117.98 29046.33 28111.69 27300.92 26603.12 26009.32 25512.18 25105.80 24785.55 24548.00 24390.76 24312.49 24312.83 24392.46 24553.09 24797.53 25129.81 25555.30 26080.90 26715.31 27469.33 28356.28 29457.01 30663.45 32064.44 33690.92 35581.58 37785.07 40363.15 43696.65 47320.76 51605.91 56766.48 63051.26 70807.11 80383.40 92800.21 109164.70 130913.82 161095.84 205269.78 278139.28 430155.74 804321.18 1633065.03 2954726.33 3995786.79 3517651.66 2389564.12 1782693.51 1756389.87 1887620.85 2146817.65 2348433.42 1920009.39 1269249.59 902025.97 776445.00 615818.30 404690.20 251052.27 168793.58 129262.47 107957.59 94254.85 84617.42 77674.72 72717.31 69329.57 67281.09 66485.29 66998.52 69085.50 73561.27 83283.49 107025.98 161451.30 255899.80 350510.34 342598.23 253622.67 184130.52 164452.81 193021.10 272427.91 416276.95 643847.35 1000287.46 1363485.61 1293894.84 866664.51 515842.98 368225.78 400021.59 568883.89 772982.72 778428.93 582952.71 412298.72 340483.75 350304.70 432486.60 643693.86 1108554.76 1886151.95 2666559.54 2833694.43 2909868.64 3712364.71 4857950.63 5043039.25 4821395.87 5314381.88 5847451.05 5306467.98 4201860.67 3573708.65 3033272.11 2445253.32 2297833.31 2448729.42 2252852.82 1539238.11 883044.03 502681.50 326069.83 243277.38 195675.04 163189.50 139216.03 120828.05 106341.59 94670.60 85124.86 77246.90 70577.68 64912.78 60065.85 55873.48 52229.98 49046.22 46251.13 43787.16 41609.50 39679.63 37970.58 36448.48 35095.88 33894.86 32830.41 31889.92 31062.86 30340.44 29715.39 29181.77 28734.83 28370.95 28087.46 27882.71 27756.00 27707.58 27738.78 27806.93 28006.13 28296.20 28684.15 29179.38 29794.90 30528.24 31466.45 32691.69 34413.53 36829.54 39694.42 41844.91 42969.74 44434.16 46915.80 50519.02 55300.12 61337.86 68454.83 76556.87 86802.77 100585.99 119516.90 146095.27 185309.44 250715.20 387352.64 718288.71 1437342.87 2575587.87 3483774.89 3047744.60 1900042.36 1056145.73 717562.90 797296.22 1209783.71 1742287.02 1809537.80 1280743.14 747210.77 451691.28 368046.85 453875.61 720843.58 1115803.58 1313021.04 1029367.38 626147.22 372047.88 289802.51 344884.78 506575.76 673381.56 632140.93 424155.84 246513.58 149515.29 107157.40 88469.53 78436.04 72155.27 68047.07 65416.30 63875.10 63189.95 63225.02 63884.22 65131.10 66953.81 69366.52 72407.93 76142.47 80664.17 86103.61 92639.22 100514.76 110066.78 121768.59 136302.93 154687.64 178513.27 210537.01 256963.48 336483.64 502422.04 853774.58 1453060.09 2093187.44 2166223.90 1732345.14 1490294.45 1884324.92 3334304.26 6069397.40 9045337.82 9167107.08 6316258.11 3573781.29 2122270.26 1845474.65 2485945.85 3760770.70 4673206.07 3922145.38 2448961.40 1384936.75 867574.56 681387.14 652800.85 745874.91 1068928.71 1883311.75 3405938.79 5192907.43 5524187.52 4029200.05 2557039.80 1828029.19 1612696.44 1767977.26 2365286.55 2991943.15 2719497.74 1829725.10 1145891.19 797691.37 575620.68 394941.56 272579.93 201197.28 160782.16 135218.71 117056.07 102984.66 91795.20 82694.18 75095.44 68768.67 63391.05 58773.75 54775.18 51287.14 48225.62 45524.41 43130.72 41002.00 39103.65 37420.27 35902.63 34544.22 33328.94 32254.66 31287.87 30430.55 29675.25 29015.92 28454.43 27974.41 27580.02 27275.77 27050.66 26911.50 26860.93 26903.23 27044.23 27291.98 27657.06 28153.23 28798.57 29616.60 30637.88 31903.90 33470.46 35415.40 37848.68 40934.49 44924.81 50243.20 57772.64 70039.92 94662.19 148215.46 248100.47 378070.47 436940.33 357843.04 255241.90 201714.69 203275.53 255573.04 372459.71 596379.43 1000824.23 1697492.76 2624202.56 3017010.24 2304253.99 1362331.12 768297.88 551503.91 624629.86 947555.85 1407185.41 1582072.18 1225733.15 801047.08 562413.23 435748.40 309927.19 205294.58 141423.03 112266.76 108724.10 126602.03 155579.98 160852.90 125239.85 84619.73 58122.94 44437.00 37455.43 33257.54 30253.41 27923.23 26045.27 24514.10 23245.95 22188.89 21306.69 20573.58 19971.24 19486.86 19112.04 18842.09 18675.75 18615.19 18666.25 18839.12 19149.29 19619.21 20280.79 21179.21 22379.03 23973.91 26102.82 28977.88 33157.47 38758.88 47125.57 61222.22 90374.84 158438.84 301299.32 525170.77 712300.53 642571.23 415364.06 234989.68 147059.21 132808.51 177976.74 274536.30 370928.22 351426.53 236075.06 134262.35 76390.90 50026.24 38151.04 31742.16 27623.16 24750.71 22679.78 21165.07 20056.90 19227.40 18806.96 18480.00 18349.60 18349.08 18611.96 19101.21 19835.83 20947.06 22478.18 24806.32 28097.03 33322.23 42993.89 64593.17 113510.18 204277.10 318551.30 359852.28 273741.76 165999.83 98412.04 72410.79 77340.40 109619.52 162120.04 196098.23 164466.89 106265.37 63630.63 41518.02 31811.75 27349.70 24889.09 23348.92 22350.42 21714.98 21339.23 21158.58 21144.02 21242.39 21448.03 21748.81 22137.05 22608.37 23160.94 23795.11 24513.13 25325.46 26225.33 27227.10 28341.26 29581.28 30964.59 32514.00 34260.06 36245.07 38600.96 41284.28 44555.44 48917.65 55781.49 68110.22 89199.56 117124.67 135549.35 130266.72 113937.18 102418.78 100629.58 107788.16 122987.29 145682.51 171144.92 189862.33 204201.35 224766.54 260281.32 319208.83 423231.34 620924.15 974533.82 1486127.27 1978111.01 2371855.02 3324362.63 5407062.07 8045396.18 8705694.18 6485807.72 4046136.21 2626302.02 2011585.53 1930942.88 2491326.21 3646130.22 4579295.50 3987170.04 2549065.10 1412404.98 789864.45 505176.95 371704.17 296834.59 248315.13 215397.48 193622.17 182244.48 185493.28 215723.44 289216.84 402857.95 489998.07 471486.47 434736.65 445848.11 432527.23 344922.69 268306.67 251242.98 278036.58 286582.43 258387.66 245353.64 249373.70 220782.40 164282.59 118526.69 92711.74 80982.44 76199.38 74558.73 74690.53 76181.78 78934.79 82999.43 88542.19 95855.66 105394.81 117846.81 134254.31 156235.10 186400.84 229369.55 295358.79 413867.60 669669.37 1237520.45 2296424.69 3688976.13 4363665.52 3456779.98 2118527.31 1211692.21 806462.94 763107.64 1023431.52 1591019.54 2285116.51 2509401.57 2166275.82 1874804.77 1649388.33 1216298.59 768636.75 475585.77 332615.75 293635.00 337939.50 463652.40 623186.59 651763.79 490032.70 308441.44 190684.79 131095.42 102889.99 87705.39 77934.66 70988.43 65847.81 61894.16 58976.36 56797.28 55217.05 54132.43 53498.09 53264.13 53406.65 53872.40 54750.16 56010.15 57677.89 59787.47 62401.54 65587.73 69441.44 74088.35 79696.70 86483.24 94748.20 104899.38 117505.40 133376.46 153697.07 180251.48 215828.03 265052.85 336803.82 453464.45 681645.59 1188770.64 2242443.80 3963431.60 5694524.28 5659192.22 3931401.66 2280942.67 1323838.74 958411.65 1006741.68 1441249.75 2246596.44 3035032.73 2906513.00 1988399.28 1146301.44 645866.50 407167.85 298281.45 241607.47 207305.47 185477.05 171938.16 164938.14 163689.75 168215.37 179361.96 199114.09 231704.67 288010.13 400541.75 653570.69 1189528.84 2094906.26 3083890.33 3213573.00 2319437.64 1375641.65 798760.06 557456.42 546357.29 738871.23 1142240.55 1614138.86 1686416.07 1233070.06 736016.18 416884.95 257806.10 186042.64 152304.14 136079.60 127673.96 116482.03 100098.91 85571.23 75547.48 69458.29 66146.96 65231.45 66679.50 69344.42 69465.18 65743.71 62124.27 60548.15 61094.94 63445.45 67735.52 75262.40 90248.87 122863.61 187975.04 289632.41 384079.04 372068.16 274170.58 186672.29 138728.65 123271.16 130495.00 159365.05 210946.41 269054.53 285347.14 254588.98 228766.96 233489.66 281310.66 404990.54 674391.71 1151868.42 1743853.70 1984947.81 1586593.63 1052450.13 709795.21 580519.08 611962.74 801035.70 1232736.40 2051236.09 3294544.01 4740684.47 5757657.99 5073569.57 3347273.11 1944899.33 1174966.43 883939.37 918656.77 1267436.73 1941154.68 2672952.30 2700423.15 1943317.72 1167245.89 678638.52 436400.23 326225.54 271987.01 242068.62 225851.16 219673.49 222391.80 234406.09 257750.92 297260.82 365480.06 499281.27 794084.34 1416026.05 2485593.09 3734154.36 4082532.36 3083471.91 1881588.83 1096441.98 732499.46 651876.04 795874.94 1189202.88 1784306.52 2193653.18 1898550.86 1266522.64 785605.03 558737.30 546428.75 695190.83 915312.50 980580.32 777463.59 530781.67 379484.96 342743.57 415732.88 594921.12 826890.11 945383.40 878137.83 673474.60 447248.99 297131.28 228373.46 222648.76 267432.36 343402.71 386323.32 332594.50 243580.83 178507.35 144824.51 131864.59 129398.66 132460.68 139586.89 150840.93 167207.22 191041.34 227448.48 285794.27 379939.69 529571.88 768993.68 1196166.98 1939576.31 2854265.64 3188528.98 2533999.53 1702174.68 1212025.00 1147911.73 1508210.56 2303032.02 3397039.83 4135330.74 4030723.39 3478741.18 3079353.36 3139095.13 3112702.64 2537977.88 1982029.32 1823252.66 1896718.04 1732182.77 1358381.14 1154097.63 1234543.30 1431539.16 1350153.69 968900.09 606948.51 378265.86 259093.91 198944.19 164546.06 141630.19 124960.31 112324.90 102550.59 94840.72 88725.45 83867.60 80032.56 77055.67 74822.25 73236.53 72289.71 71943.65 72218.83 73131.38 74670.52 77259.70 81286.88 87971.07 99552.11 118089.90 141661.31 157970.93 156958.68 152672.15 156944.06 172590.04 200440.95 244566.83 318677.47 460263.73 748681.95 1286282.08 2089905.58 2821794.16 2750436.87 2079135.89 1601699.98 1619175.15 2054840.42 2468791.96 2325609.94 1966936.08 1858307.92 1874602.26 1608755.52 1192965.54 950035.38 972339.38 1185356.15 1326681.43 1151063.25 868753.60 712325.03 772720.82 1125290.19 1828406.74 2731665.46 3135898.40 2516545.55 1602482.36 948195.45 608401.74 484289.99 506468.86 680395.52 1029743.73 1463122.34 1607754.24 1253750.59 790260.36 464730.75 288793.59 204202.98 161366.59 136089.66 119361.50 107818.08 99909.60 94808.65 92094.85 91575.69 93561.66 98574.03 107898.04 125318.26 161196.56 238115.45 386294.99 611106.47 817215.22 794342.60 581184.86 384374.46 272349.41 234160.72 249675.89 323241.15 492506.03 811110.68 1276174.15 1717224.50 1860595.13 1518555.18 990727.53 597644.17 385235.00 301130.02 300759.41 378048.84 544153.36 770756.28 927314.68 872277.87 748717.67 757909.83 909899.96 1002951.03 827202.82 547732.39 337514.88 221438.53 172164.47 165754.30 199671.06 282811.97 405487.50 488506.94 425973.85 289051.59 177774.93 112208.46 79208.33 62577.14 52970.21 46499.18 41791.47 38229.53 35472.45 33307.93 31597.05 30246.70 29193.74 28396.22 27827.60 27492.41 27352.14 27435.38 27767.85 28297.55 29310.40 30878.31 33461.89 38052.16 46939.61 63282.20 88453.92 114965.34 125565.69 115852.83 94646.01 77482.76 70432.97 72689.46 83147.62 103210.36 137603.47 196073.83 298762.76 485634.87 787364.33 1131758.78 1225608.63 942076.64 590467.48 349337.81 225605.30 179406.48 184297.17 242010.63 365555.07 537941.46 643951.04 549716.48 364546.80 217531.95 131938.88 89576.81 69307.81 59301.37 54830.30 53102.72 50240.27 43948.04 37584.78 32970.87 30069.71 28352.59 27455.58 27343.33 28133.39 29660.76 30730.78 29727.09 27769.12 26180.30 25384.68 25196.83 25375.70 25800.86 26375.95 27109.57 28004.93 29080.43 30341.36 31819.79 33549.38 35576.64 37953.08 40755.86 44083.52 48078.91 52901.91 58816.18 66179.65 75548.07 87763.35 104374.75 128868.18 170063.16 247359.66 389877.74 614863.17 871179.03 982649.84 920543.25 947404.10 1249280.40 1827572.73 2356965.41 2236734.80 1628419.11 1109747.03 853733.16 764963.29 675000.71 591918.06 621350.25 810592.18 1102637.85 1243056.29 1019864.74 671864.27 408660.15 257818.02 182980.16 146199.09 126690.54 116064.14 111623.57 113101.51 122810.35 148402.23 206386.17 318223.08 487529.89 646462.13 638323.80 476695.22 317300.16 218475.35 174328.61 166222.35 185625.55 240536.29 351862.91 537697.49 769129.61 957275.39 1010758.88 844103.26 605851.29 449442.20 414621.18 517535.59 784673.52 1210219.18 1620161.48 1649332.92 1350480.89 1003370.22 683085.42 456897.30 336982.35 304091.18 352081.96 486629.87 687405.62 830793.89 747415.73 540013.79 375006.74 300380.10 320250.74 439743.29 655112.15 885741.77 913066.02 694094.58 448452.27 282502.75 195848.19 160688.39 158102.01 187482.35 259111.22 373781.64 483365.41 476940.46 361054.70 245638.45 173425.16 141106.03 136176.52 154549.98 207646.28 320532.98 512585.30 747137.77 853234.73 702195.21 468109.86 292855.07 195382.97 152820.05 143386.62 161329.09 214395.71 309724.98 425422.55 472120.55 393545.77 281426.58 203114.64 167436.88 166439.18 199773.81 285488.83 454001.53 714190.32 974996.83 995517.30 752740.78 489875.88 316251.77 229457.31 199550.62 207328.39 255395.56 363969.91 553397.34 797999.62 974032.47 985674.93 816485.79 571154.08 383527.35 278755.52 235330.94 230200.21 253769.89 311738.47 423039.48 617989.49 927060.22 1369614.88 1994328.00 2648631.63 2711622.98 2045040.73 1295517.96 784181.77 512467.90 397071.09 376770.42 442946.76 624594.50 940511.40 1303135.97 1406391.72 1108909.76 722593.20 443336.02 285666.42 207863.70 170519.36 152426.44 145630.35 148902.56 166501.82 211742.43 310019.61 488532.97 738509.88 933577.71 865153.22 617564.18 394715.80 256458.11 188533.62 163828.09 167711.65 202348.77 278915.48 399369.35 519366.56 531381.16 437090.34 356052.71 357007.79 469583.98 694978.16 954645.81 1019649.44 800744.72 525165.83 328579.05 220270.64 171687.16 158557.58 174689.18 228731.11 330999.81 465423.85 542355.78 468044.28 326040.00 211182.44 141964.16 106485.82 89137.24 80160.82 75225.70 72684.04 71801.90 72267.26 73920.24 76724.09 80666.59 85939.88 92747.80 101445.49 112510.52 126492.46 143905.03 165635.64 193977.82 232446.29 286559.56 367763.03 504763.96 766994.59 1284402.81 2205934.67 3526258.83 4687295.98 4548554.53 3293756.99 2052944.88 1243131.03 822982.44 648062.37 622633.65 737111.53 1043426.05 1583875.62 2244371.63 2539024.74 2112972.53 1460435.72 1002621.07 808996.74 790233.90 770791.79 642988.38 498769.80 413313.64 378351.63 343136.98 297490.95 268908.40 260428.44 270164.06 306626.95 346512.39 329832.95 264454.12 209544.77 184173.63 171921.07 150791.07 127628.13 110262.48 92789.26 74509.38 60154.37 50574.94 44583.02 40790.00 38269.09 36482.77 35286.29 34541.20 34290.75 34587.38 35581.31 37618.77 41572.09 49586.39 65902.10 96029.11 141926.71 189818.99 199096.84 158699.57 109875.38 75336.56 56385.60 48059.83 46104.74 49224.67 58715.36 76524.78 101395.57 122326.08 119271.90 96826.28 75742.80 63593.32 59774.24 61951.29 68777.85 80772.92 101229.04 139081.22 213085.42 351130.19 570604.81 825710.29 932981.41 769098.95 514642.91 318469.73 203636.28 148094.23 127366.64 130272.15 159943.14 227401.94 337105.59 456066.76 483747.56 383087.20 254669.09 160366.79 105399.73 77020.45 62579.49 54913.26 51334.08 51523.92 56031.81 64487.00 72519.52 71150.10 61049.73 50988.82 44524.94 41484.07 40767.59 41558.57 43666.46 47439.38 53410.52 61552.69 69713.65 73678.42 74652.08 77128.92 83450.31 94408.68 111096.96 136640.66 179566.27 259649.18 411129.32 669192.62 1023476.92 1314854.24 1261513.68 942908.52 640643.77 454963.76 380095.27 393797.33 501571.37 749589.89 1198318.71 1837068.60 2401166.27 2406286.98 1873903.78 1238150.70 769036.29 496913.55 363071.13 312087.25 321352.45 398938.20 563854.98 806148.94 1008511.24 958335.30 705417.41 459600.39 295607.26 202923.08 152148.86 123259.16 106407.73 97364.63 95057.96 101313.75 122138.93 166990.37 242643.06 336061.66 385537.17 334379.09 237940.97 157612.67 107537.53 81384.90 69618.92 66803.86 72492.92 90010.95 122981.86 167849.43 199440.05 182704.41 135515.63 92607.94 64417.82 48687.17 40389.78 35792.28 32919.81 30979.75 29625.21 28681.90 28040.39 27649.02 27481.13 27462.66 27604.51 27883.80 28301.26 28861.41 29556.89 30399.89 31403.83 32572.87 33940.35 35526.20 37351.78 39481.34 41957.28 44849.50 48253.22 52286.41 57122.53 63003.08 70287.65 79543.53 91984.76 110217.80 139851.16 190299.18 271385.63 381746.52 482518.49 500100.53 452522.60 424677.17 467908.13 626950.38 966981.39 1551249.00 2337465.99 2974389.47 2941072.69 2304732.53 1600768.96 1086921.97 754223.69 564018.27 479694.72 481089.02 577552.33 799929.52 1167121.88 1605762.74 1882410.39 1865992.43 1731177.57 1555496.76 1224596.92 843814.28 554722.37 375259.15 276301.64 225806.25 204021.29 205735.58 237147.89 309478.82 425000.78 546011.34 571552.79 479698.59 380476.33 339362.46 356913.18 383291.37 346907.17 261626.03 183272.97 130547.34 100408.47 84866.54 77855.24 77236.27 84282.08 102253.54 133106.14 170093.41 186745.46 162929.21 123649.61 92361.76 73557.58 64566.20 61696.55 62726.66 67295.86 77074.12 96796.60 134972.37 201111.99 295569.85 385299.56 393488.10 313712.90 221285.19 153868.97 114870.81 96319.28 90087.06 92170.55 102986.94 126206.38 165823.44 219447.82 264413.60 264028.86 230751.02 202042.43 192869.65 206077.68 244329.92 320130.35 464405.33 728285.99 1162507.47 1746242.63 2256007.29 2397795.46 2100851.68 1524014.60 993660.01 641511.56 446985.33 357350.11 336075.95 375306.42 490026.89 698652.58 978726.53 1203085.70 1235340.13 1052585.08 750614.01 486671.37 312164.93 211310.75 155687.59 123757.47 103855.00 90799.01 82307.38 76580.06 71076.38 64327.18 57828.92 52737.13 49117.15 46641.07 44957.76 43902.48 43467.71 43755.34 44893.82 46983.04 49802.38 52577.59 55062.69 58518.13 64172.77 73167.03 87704.77 112975.41 160175.36 247333.93 391813.99 587096.65 750471.43 730138.90 550813.51 364861.65 235266.93 161182.86 124408.85 109058.03 107694.48 121061.82 155977.14 220582.77 313152.56 397133.07 395580.46 308228.02 211708.51 142286.74 101168.47 79272.60 67824.85 61532.09 57933.08 55991.05 55239.77 55443.32 56481.20 58306.78 60929.91 64411.22 68864.08 74464.11 81467.86 90246.39 101347.61 115614.43 134385.53 159764.62 194979.47 244988.32 319348.51 438832.81 652423.87 1037316.08 1651799.77 2426922.62 2958915.23 2716159.64 1971929.38 1278406.66 814179.93 555520.36 430713.27 382534.33 384735.17 441208.85 581086.49 837299.73 1202453.52 1536429.84 1545784.82 1225638.44 877959.86 660600.38 598411.96 670138.61 822927.11 942184.41 945038.17 899631.09 810922.44 638754.26 455242.72 320592.31 239883.32 201204.93 194622.44 218113.88 274758.43 361768.43 447541.25 477308.61 463064.63 434069.86 365345.49 270618.31 190983.74 138050.10 106879.84 89606.58 80090.42 74870.18 72383.96 72039.23 73708.56 77564.55 84098.66 94327.43 110454.43 137614.09 187102.53 279026.44 438088.35 674335.81 934423.54 1038926.81 875013.19 611236.00 396043.42 259430.63 184931.67 148661.68 134363.41 136292.05 157696.78 208322.34 298287.76 423201.88 531169.04 522650.08 404610.84 277010.15 186252.79 134185.02 108374.72 93821.16 80199.14 67212.80 57057.77 49994.70 45348.76 42335.90 40397.92 39258.82 38880.65 39405.66 41042.79 43796.02 46834.72 48004.68 46616.73 44809.86 44004.62 44438.36 45967.53 48430.05 51791.14 56167.91 61824.84 69203.82 79037.92 92684.63 113055.26 146699.97 206724.70 313233.98 485018.71 714929.50 913520.10 909116.51 711307.06 492623.64 335238.90 243763.19 199554.53 184112.95 187214.72 207511.06 251640.02 333560.56 471627.86 677153.01 921862.16 1140504.71 1326598.99 1407940.11 1247454.91 965022.36 727091.52 563864.23 469061.99 445275.69 501550.67 663116.40 963509.30 1405946.28 1866717.76 2038783.59 1840907.93 1498483.90 1117756.42 790798.73 568896.56 430490.12 349326.16 314708.10 325491.91 391049.19 524497.11 721715.48 913615.76 945822.82 798841.70 634630.78 543985.29 517375.55 484028.01 401377.28 308588.95 240020.49 202145.39 192564.83 211653.01 267523.62 373255.02 533608.26 712355.83 794956.89 716736.61 578951.00 448754.89 330440.43 238161.68 178121.22 144076.60 129141.80 130499.46 150473.23 194671.15 265523.38 347331.73 385090.92 335624.54 246580.52 169865.93 118437.66 88095.69 71032.73 61064.45 54723.73 50324.75 47150.15 44834.80 43140.20 41927.92 41106.93 40613.03 40402.92 40448.30 40733.27 41247.82 41994.57 42980.62 44219.47 45736.63 47561.67 49738.65 52264.19 55196.31 58643.83 62724.64 67588.44 73416.36 80450.26 89021.71 99593.72 112826.15 129683.39 151649.15 181229.70 223309.31 288524.00 399312.76 595342.28 927454.05 1426070.67 2019424.25 2389948.49 2198421.44 1689844.70 1255373.24 1020621.66 944356.16 892259.75 767503.32 626715.98 542672.53 546923.86 657376.25 882040.36 1189232.54 1451697.49 1475267.82 1276871.89 1068283.26 924255.15 810024.27 709588.74 600322.67 491941.19 418952.79 378791.56 343091.45 306123.86 280169.21 260262.80 240958.75 233884.21 245303.01 262407.70 256314.67 222828.43 188298.22 168364.81 164962.73 172304.12 177008.64 169050.81 156207.60 148002.08 147239.06 153731.61 167056.61 187816.36 218603.60 266013.90 344806.10 483138.83 722200.51 1099216.61 1599263.19 2043943.24 2077389.64 1679699.50 1208059.87 864190.31 679383.82 629051.18 679181.21 790553.93 900351.46 976495.83 1092347.84 1318931.23 1684871.85 2222053.45 2830160.14 3176618.16 2952163.92 2275941.54 1580597.91 1083721.02 797325.65 667102.64 625509.34 605256.95 580723.74 577725.13 609904.58 684713.22 832233.34 1049386.47 1221557.17 1163069.25 909740.93 645482.00 451955.97 332237.34 265794.18 231577.95 215969.08 212798.30 221340.52 245772.55 296228.23 388473.56 537702.62 740935.71 935322.28 981105.23 851278.53 690012.78 597484.79 603438.62 709298.47 893810.32 1097545.85 1264287.92 1407986.53 1591689.37 1783075.71 1783553.94 1568131.55 1317055.60 1076122.84 839168.06 648809.73 532135.22 490469.88 515223.50 590004.94 682043.71 762934.40 840894.18 948584.86 1068363.64 1090428.22 974875.08 802414.78 654379.87 568326.51 549942.20 609963.81 777945.95 1101201.93 1621912.76 2307190.27 2913949.26 3037659.68 2582619.38 1899441.66 1322303.26 931850.07 683502.85 529205.37 440940.05 401470.97 406393.82 465391.16 600002.88 832674.80 1155982.13 1467571.50 1564694.99 1360908.31 1006635.17 685648.27 460460.35 321241.06 239820.14 191527.94 160948.80 140107.51 125221.19 114435.57 106749.56 101596.83 98670.83 97836.59 99078.71 102670.12 109506.20 121508.24 142635.57 180725.15 248461.68 360500.27 523065.01 707397.35 809283.88 732132.40 554267.86 389501.30 275334.28 208852.43 176883.50 168747.61 181066.14 218003.81 288727.24 401184.85 546486.06 672588.96 719243.85 691408.90 590367.11 442913.80 310404.10 217300.83 159734.57 127087.05 110401.47 104897.39 110047.27 128159.50 161694.46 207965.72 248082.93 246843.80 202504.69 149595.85 108117.62 80756.08 64289.76 54626.64 48704.94 44752.65 41913.93 39828.85 38313.42 37251.36 36545.41 36142.38 35974.52 36075.47 36405.27 36977.15 37769.69 38813.24 40130.52 41747.96 43689.71 45978.10 48719.13 52018.64 56012.74 60863.11 66821.05 74200.71 83467.41 95318.17 110883.84 132236.28 163573.46 213356.01 296549.72 433933.99 644173.42 921648.31 1184582.83 1263306.11 1132361.58 959318.59 839275.53 790338.06 832853.50 950653.34 1038587.06 964634.74 771667.07 590685.07 482546.78 458628.41 511845.77 617755.21 711206.59 704447.97 613627.52 521954.78 462016.86 440818.92 467141.51 525008.52 552808.99 494584.09 388501.48 293314.15 228755.20 193683.79 182265.06 191416.00 224674.97 293150.58 412129.50 590550.82 805383.86 954516.17 905912.19 706718.80 498072.65 342140.58 242844.31 185905.92 155665.29 141326.69 137711.40 144163.85 163967.32 204293.90 275052.95 384330.55 525380.70 651315.44 698144.02 675419.44 603840.95 481675.08 351804.60 251326.09 185596.89 147052.57 127128.01 120002.84 123796.20 140689.78 176494.83 238480.16 329979.96 436360.03 507895.12 502171.92 436570.88 340376.26 247191.99 178859.78 137362.00 117213.15 112327.24 116867.61 122919.93 123660.52 124389.24 135663.59 161701.29 195796.86 214066.51 193973.50 150860.22 109947.78 80367.26 61983.54 52113.81 48210.57 48513.56 51440.49 53922.25 51705.37 45027.99 37821.42 32206.27 28433.23 26096.91 24768.23 24074.37 23820.09 23933.37 24406.91 25281.23 26641.25 28660.52 31789.79 36992.42 45862.93 60422.61 82365.67 110497.19 135489.35 139582.84 119790.13 93544.01 72726.06 59871.02 53955.64 53391.55 57379.37 66658.52 84084.56 114610.79 164181.66 235830.82 319902.03 378239.53 368013.49 304309.33 227053.47 160681.15 113985.19 84925.78 68176.72 59133.88 54969.54 54575.83 58255.95 67598.93 85099.68 112912.30 149864.95 184675.74 193792.05 171812.24 142698.54 125183.88 124288.74 136537.54 148945.70 143136.05 118932.46 91899.17 70825.32 56967.42 48855.70 44625.91 42833.62 42668.34 43848.29 46507.66 51136.16 58694.65 70148.17 85936.17 104235.66 118613.80 123552.45 125255.72 134375.31 159695.94 211200.27 301406.04 440819.22 624351.89 798843.39 846340.39 722135.48 532694.42 368884.75 254425.81 183439.16 142698.64 120459.67 109266.79 105701.72 109352.45 122478.60 149879.90 197927.37 271326.65 364497.40 443570.96 448738.60 375092.14 281319.53 205382.13 154820.60 125554.11 111201.04 106907.73 110688.77 123592.78 149315.73 193251.34 259331.69 342679.43 414432.83 423720.12 365993.65 291423.60 233378.00 199312.70 186882.46 192404.85 214994.26 259255.23 337040.03 467283.83 671423.79 959372.91 1292502.05 1535459.77 1568707.23 1463653.81 1289092.10 1039413.03 773621.34 561848.21 420631.39 339193.55 302901.37 300833.66 326219.68 375020.67 450577.58 559097.69 690786.77 820851.90 900724.38 881383.83 798754.91 694794.58 566180.02 432121.71 323273.93 247905.82 201625.47 177584.20 170015.62 174306.33 186036.26 202995.76 225893.51 251898.98 280930.05 325807.49 398271.68 490368.93 576737.06 652408.47 715250.91 708754.50 600218.25 452656.71 326410.36 237635.47 181992.82 150252.36 134336.19 129439.38 134125.34 149673.15 179376.66 227357.40 294879.83 376489.13 470050.27 573738.22 643961.49 612417.03 492609.63 358966.34 252863.64 180511.40 135248.33 108108.18 91873.89 82060.70 76404.94 74102.92 75390.86 81428.76 94106.09 115305.07 145034.20 176892.58 193014.93 179563.69 149394.90 120871.38 100961.71 89921.75 86045.79 87635.87 93832.45 104873.37 122211.56 148894.43 190340.58 254811.73 352790.45 497280.58 697656.63 929394.80 1088131.81 1043445.87 833773.94 600481.39 416123.53 291152.13 213999.81 169117.22 144053.22 131458.64 128028.26 133477.65 149835.72 180969.70 232068.39 309611.97 414664.26 523137.64 569620.58 509068.81 390927.72 278561.81 194686.22 139010.32 104275.64 82883.94 69183.04 59819.49 53020.59 47885.86 43913.24 40790.47 38297.77 36332.52 34773.68 33547.58 32600.12 31891.49 31392.56 31082.38 30946.58 30976.22 31167.13 31523.45 32041.97 32735.67 33618.68 34711.00 35997.52 37598.92 39520.40 41825.02 44610.33 47962.55 52049.99 57091.75 63395.13 71443.81 82048.64 96708.84 118285.68 151920.38 205608.61 289222.42 410333.49 563530.20 707788.96 761855.69 687252.09 546778.51 415914.08 323465.55 268010.34 238440.62 227882.46 236477.33 265695.04 314983.92 377048.52 436864.33 497208.54 591634.19 746790.74 949954.54 1117919.94 1122966.64 953628.50 726182.35 530824.23 393241.53 307080.68 256861.36 230110.41 220975.16 227081.44 246761.97 276090.67 306814.50 336854.99 381160.86 457327.81 572041.98 712063.86 848949.62 991547.70 1180982.64 1393518.24 1489807.58 1350697.20 1069701.65 799493.72 604960.31 493595.65 453560.45 466395.41 504221.62 521757.67 486298.53 421665.82 368286.74 347119.50 367179.82 433338.88 544964.66 683711.53 789680.38 784437.71 680647.24 563692.80 488992.94 477201.16 536897.95 671206.87 869462.12 1078960.14 1181274.75 1090453.23 880656.08 669397.12 509605.33 408741.00 353585.82 320983.24 291656.70 265329.42 251095.83 255902.32 285735.02 347452.82 446992.10 581403.84 722615.61 820376.94 847354.92 795979.13 686081.66 578936.20 518094.72 513649.44 549843.20 580076.78 548706.09 459906.34 362723.00 287293.51 240996.07 222576.11 228460.55 253527.97 286861.52 305840.66 291393.52 255408.88 221803.55 203268.66 203791.59 223824.70 260905.82 305555.36 336711.98 339819.59 332038.74 339416.33 374612.35 440855.59 538125.34 650734.68 727936.66 724610.55 678602.27 664179.37 726893.51 883819.27 1121463.76 1362620.61 1447899.40 1290715.65 1009344.01 743843.28 547055.97 421785.27 354987.77 331221.14 338431.02 368860.77 409480.17 431579.27 415113.90 382930.22 371127.59 400333.60 477479.85 594024.85 708456.45 739835.45 650650.36 503869.85 366806.01 262976.86 192012.68 146093.88 116734.90 97397.91 83946.85 74054.04 66424.41 60294.35 55252.93 51095.79 47673.11 44852.98 42540.73 40619.99 39038.92 37747.51 36709.01 35897.01 35293.31 34886.80 34656.05 34636.30 34817.23 35208.50 35817.60 36642.52 37670.06 38951.09 40564.81 42635.91 45300.93 48737.20 53171.93 58868.81 66078.48 74869.03 85472.66 99059.57 119008.89 150469.07 200251.79 275631.04 381379.34 513033.15 639089.76 689864.49 625101.00 497379.72 372984.98 277934.12 213303.05 172658.20 149170.96 137481.50 133886.67 136328.98 144189.68 158769.10 183202.03 222807.23 285606.91 382000.40 522246.75 707929.90 915353.15 1094152.11 1187073.59 1139057.20 975311.65 799098.36 678627.16 626246.24 616500.96 595130.06 523641.19 423256.57 330702.57 261375.80 216477.58 193052.75 188714.59 203398.55 239407.75 299378.54 381276.95 467333.12 514163.02 488403.09 418692.56 353953.04 316989.29 307390.40 307352.29 289632.76 246531.49 195738.59 152171.29 119981.05 98117.58 84145.31 75647.02 70861.78 68762.24 68925.38 71417.56 76833.36 86537.55 103044.89 130270.77 173168.87 236170.76 319300.08 408801.29 465193.91 446922.05 368492.27 277727.12 202068.77 147493.55 111254.19 88385.55 74305.97 65746.17 60793.52 58559.71 58884.12 62231.99 69738.89 83193.21 104691.77 135952.51 176700.59 219542.90 243992.86 230666.30 189270.68 143497.28 105860.41 78842.08 60824.26 49279.88 41930.60 37139.42 33953.77 31882.90 30677.02 30308.15 30854.08 32515.61 35531.65 40171.84 46749.18 54993.50 62635.92 65091.20 60270.18 51727.47 43582.30 37505.82 33652.64 31670.28 31145.23 31791.04 33542.63 36617.02 41587.65 49454.89 61613.83 79577.10 104182.44 133709.60 160244.72 170667.53 161361.87 142536.53 124164.55 112579.50 111839.14 123560.77 147046.36 177380.38 201080.52 200338.31 174407.86 140200.62 110764.99 90377.55 79194.40 76186.41 80045.06 88990.19 99325.81 104344.23 99578.68 89071.45 79435.19 74184.62 74592.44 81128.05 93772.58 111328.21 129377.30 139312.45 136205.80 126375.63 118571.85 117112.23 123499.93 139320.60 168437.99 217131.05 292332.61 398408.65 529757.23 654498.33 707120.56 648201.65 522494.65 393890.38 291448.21 219427.19 173021.41 145389.58 130655.26 124934.75 126407.90 135123.32 152837.59 183159.98 231748.59 305744.88 410368.44 541352.15 671144.04 749311.15 744617.48 663431.15 535447.16 404145.93 297056.54 219725.33 167570.56 133744.25 112189.25 98591.55 90350.05 86222.83 85967.57 90282.34 100654.40 119161.08 147781.21 186811.67 230956.98 263853.14 263981.53 231731.75 188982.98 152419.06 127808.21 115985.93 116640.93 129638.33 154888.09 190728.59 229664.82 254384.46 247639.77 213128.02 170150.08 132523.55 104462.29 85419.49 73480.99 66558.60 63069.10 62032.07 62995.88 65941.87 71283.41 80002.00 93881.72 115658.77 148888.07 196966.88 261120.53 334937.55 396030.28 410378.46 368702.92 300448.55 235948.24 187593.71 156928.15 141677.63 138694.60 144539.80 155316.31 168319.24 185129.63 208367.76 234998.16 253987.61 256588.38 250563.64 251251.14 268708.43 307346.09 366986.39 442796.60 534261.88 654197.24 810352.31 974536.40 1066163.50 1012020.13 846114.88 658626.73 501734.44 387235.62 311257.94 266313.37 243205.40 230653.54 218015.97 202941.58 191297.65 189153.54 200826.89 230518.40 282927.80 361828.22 465364.33 577904.70 669977.47 711724.38 678292.61 575150.08 447693.36 334328.53 247836.06 186953.68 146082.40 119200.63 101508.11 89748.98 82032.55 77453.22 75790.48 77393.75 82961.71 93559.44 109787.26 130894.88 152300.31 163934.64 157920.83 139515.76 119772.62 105170.62 97937.27 98985.59 109376.29 130862.99 165541.99 214474.91 274208.05 329810.55 352747.34 325903.99 267594.18 205883.52 154845.65 117279.31 91474.73 74494.27 63551.67 56542.88 52118.12 49527.86 48439.74 48832.97 50981.66 55522.05 63502.52 76312.34 95391.41 121467.73 152743.32 181366.68 193069.39 180719.18 154581.23 128084.36 106650.74 89829.26 76284.65 65894.07 58550.09 53581.58 50362.82 48682.50 48540.94 50037.09 53474.70 59492.01 69128.78 83755.38 104761.25 132803.36 166006.45 196609.14 210978.64 202946.44 183315.55 166550.33 160436.35 167731.35 189499.61 225772.71 272124.49 313632.20 326074.13 299295.28 251036.24 203294.26 166425.54 142784.42 131808.18 132689.52 145439.34 171112.54 211020.29 264479.31 326096.01 386713.11 433639.63 445533.68 411021.26 350908.46 294467.86 256377.05 238338.18 233461.52 227726.52 208706.75 178350.18 146934.17 120973.64 102118.62 89852.83 83303.46 81682.38 84862.55 93417.95 108420.12 130835.11 160274.90 192407.70 215557.43 215968.56 194139.40 164159.30 137406.06 118062.44 106510.18 101938.21 103515.81 111126.13 125771.16 149975.00 187701.89 243979.83 323547.29 427739.13 547092.92 649557.76 686991.02 645016.66 560529.32 468731.29 380021.37 299083.83 232562.30 182876.23 147932.39 124269.77 108772.09 99134.00 93870.03 92229.41 94142.11 100254.58 111932.93 131351.69 161187.05 203932.95 260106.68 324210.46 378853.33 400610.74 385534.43 351386.63 311072.57 268488.77 227997.39 192979.87 163484.64 139654.03 122091.58 110080.75 101651.81 95148.52 90339.83 87732.09 87700.83 90549.78 96813.33 107459.68 123960.21 148157.74 181798.65 225481.58 276041.00 322552.52 348432.55 348847.86 339624.44 340933.38 365437.63 420214.73 510113.73 634519.38 776535.67 893435.97 940647.24 919985.10 858948.31 763144.90 637291.67 507736.32 398740.81 318503.05 265568.76 235513.61 223520.60 224391.64 230960.11 233558.88 226419.30 214416.38 207024.05 211117.13 230814.27 268736.30 325455.23 396054.50 464239.29 505536.71 511031.74 493943.73 462970.97 418989.35 372921.35 341147.77 332798.08 348271.73 379985.14 413458.41 436756.22 445990.05 433440.98 390353.41 325537.42 258544.81 201772.67 158367.30 127037.25 105209.63 90296.28 80214.05 73513.87 69330.16 67270.71 67331.18 69862.47 75511.86 85250.73 100190.66 121140.06 147510.03 175615.81 199387.88 215582.64 223489.38 218854.16 199127.13 170593.81 141272.05 114662.40 91997.84 73979.01 60484.21 50689.92 43634.99 38508.20 34711.04 31846.23 29617.71 27864.22 26472.12 25360.64 24464.04 23736.97 23180.59 22808.94 22755.37 23060.27 23793.34 24988.95 26565.36 28157.85 29009.00 28456.13 26706.46 24579.08 22654.79 21134.45 20021.08 19246.54 18728.20 18393.05 18186.60 18072.41 18026.88 17993.12 18030.44 18081.97 18151.81 18232.18 18341.29 18483.05 18657.80 18864.69 19102.80 19377.99 19677.58 20008.73 20372.96 20772.64 21211.06 21692.60 22222.70 22807.52 23453.04 24162.98 24922.91 25738.51 26574.58 27430.21 28339.41 29342.51 30468.58 31740.44 33182.88 34827.99 36717.39 38901.29 41433.27 44357.93 47678.69 51288.95 54964.09 58559.34 62279.85 66563.65 71795.39 78277.40 86325.37 96368.07 109065.04 125482.86 147359.22 177446.74 219830.38 279977.65 364201.97 478041.11 622487.84 786664.30 939323.04 1030482.79 1016741.37 904374.88 748579.71 600669.89 483877.98 402966.95 355801.26 339248.46 351367.89 391741.66 460371.94 554510.61 661677.06 750283.75 776811.51 726833.73 634194.52 542419.88 476169.05 444210.35 447522.36 482149.77 537449.20 593060.58 620950.32 599132.94 532509.49 448908.99 372386.62 313202.72 273132.20 250922.67 244941.29 254175.95 278567.48 318044.31 370996.32 430936.26 482479.55 504627.18 490133.42 456114.11 425854.38 414249.07 429608.58 478611.48 568624.66 707488.45 900740.27 1144318.33 1409054.15 1623393.73 1694335.74 1585932.40 1356618.30 1098043.12 870711.84 696520.99 576594.80 504374.00 471567.87 470171.23 491892.84 525898.03 559437.65 587782.18 621805.61 676878.21 757970.42 851377.03 922930.09 941005.90 915224.15 887966.51 892574.80 934940.48 991235.73 1013570.06 962318.74 843161.04 696455.84 559023.35 447913.43 366227.64 311202.22 278448.34 263654.96 262888.42 271701.51 283921.74 293734.20 301763.37 315077.99 339407.11 373165.08 404161.78 411643.72 383332.45 329621.33 270197.58 217463.87 175391.78 143719.87 120666.70 104132.25 92228.90 83492.37 76899.99 71787.20 67737.36 64488.56 61870.50 59767.25 58096.80 56800.14 55835.29 55166.20 54794.01 54708.37 54920.67 55455.67 56349.04 57640.60 59359.85 61492.57 63918.53 66342.08 68422.13 70138.15 71864.20 74018.98 76862.53 80540.47 85165.39 90868.47 97836.33 106351.39 116849.09 130001.32 146828.03 168820.58 198038.49 237126.97 289185.11 357382.78 443711.71 546181.31 655560.14 759940.41 860558.88 974554.80 1113830.55 1263705.77 1376764.70 1399741.52 1316977.52 1153858.01 955249.04 763940.02 603875.55 480926.07 391656.54 329615.39 288339.86 262620.70 248927.81 245397.45 251624.82 268315.40 296900.40 338966.87 395183.22 463010.97 533695.93 593965.92 638993.99 681366.36 739105.00 819290.49 910756.40 988761.98 1035500.47 1052952.11 1052000.10 1036718.70 996365.07 920528.50 819663.11 715927.26 621156.58 534394.40 454601.76 385885.35 332167.36 294174.83 270771.66 260522.09 262408.51 275770.98 299667.75 332246.44 371999.15 420402.49 480033.57 547262.75 606183.93 633888.30 622331.19 589217.71 558454.38 540898.81 531495.91 516097.78 485156.63 442704.84 399030.06 359333.97 323068.25 290323.09 263741.53 245858.78 237805.64 240219.64 254228.41 282011.37 326895.40 393012.95 484338.57 602549.78 742357.49 883374.43 985745.09 1008942.09 946552.15 829588.46 698935.39 583841.73 497777.66 444033.35 421398.23 426875.89 455885.53 500298.58 547314.11 584978.05 610669.96 625516.23 621571.48 587307.04 526387.47 457516.69 397950.33 356410.99 335741.92 336139.33 356322.21 392802.02 437146.29 472788.62 479467.16 450022.04 397936.17 342380.81 295226.37 260947.75 240329.11 232819.38 237483.68 253092.10 277395.42 305895.39 332290.45 352730.59 367987.43 377569.46 375837.70 358978.81 332413.32 306085.77 287029.36 278379.12 281457.68 297479.88 328692.93 378759.17 453076.59 558378.03 701644.89 887362.17 1111963.65 1353453.39 1561697.03 1670516.42 1641055.65 1495433.59 1299203.38 1113587.32 969620.78 870921.05 801991.18 737361.98 658966.61 569204.27 481652.68 406337.37 346569.38 301820.13 270263.22 249874.39 239067.47 237006.51 243866.96 260890.28 290400.96 335562.20 399806.52 485647.98 592170.83 710225.42 817042.48 879748.99 875149.50 809084.70 712150.62 616685.56 541017.85 489281.80 455571.36 427823.73 395305.02 356957.13 319581.98 289909.03 271528.31 266014.03 274278.37 297080.33 334759.98 386054.09 445991.24 505029.64 553617.76 587974.16 605347.57 597772.54 561490.69 507005.07 449900.98 397885.64 349821.05 302923.53 258258.95 219006.79 186996.77 162189.94 143630.44 130177.72 120825.19 114800.61 111607.26 111036.96 113173.53 118385.88 127302.41 140747.72 159591.45 184386.29 214592.16 247491.59 278254.73 302881.15 320283.85 328765.34 324121.27 305665.29 279753.91 253878.44 231021.07 210150.74 190027.35 171473.12 156157.03 144992.89 138052.11 135068.28 135793.93 140157.02 148316.10 160668.75 177827.44 200544.75 229504.55 264841.78 305579.15 350299.07 400188.18 461030.29 540125.04 641118.66 759249.57 875583.94 955232.76 964796.91 903372.10 804206.34 704418.20 625994.18 576884.09 556593.42 559307.10 575558.54 593448.98 599580.02 584758.33 552895.42 518535.31 495673.59 492415.46 511824.03 553095.81 610554.06 671137.60 715593.74 730207.83 720071.47 704815.83 703793.49 728862.60 784836.65 869291.55 969602.15 1063576.37 1129672.40 1155762.10 1137064.38 1080381.35 1008987.90 949019.79 915094.71 910469.69 932267.83 970915.70 1006092.10 1010480.06 965764.99 877588.52 770973.88 671225.61 592527.23 538506.32 505487.34 484148.91 462349.66 432359.88 396209.88 361381.35 333937.28 316931.28 311910.04 319818.79 340724.28 372860.96 410987.79 444872.06 462720.76 460506.38 446642.87 433852.02 430748.93 441279.36 466820.55 505285.97 547707.38 576992.10 575284.85 538334.46 479488.25 417297.58 364420.04 326449.77 304886.72 298975.45 306349.95 322597.27 341446.45 357335.60 368052.25 372348.66 365837.21 343808.69 307920.71 266120.85 226255.44 192585.07 166399.53 147507.72 135165.67 128458.73 126368.45 127727.14 131352.57 136412.62 142283.24 147536.74 149482.21 145871.38 137412.76 127266.14 118613.33 113392.39 112512.32 116294.93 124592.15 136534.56 150163.88 162775.59 172476.49 178925.91 181423.18 177508.36 165375.69 146879.73 126294.17 107090.78 91002.97 78393.63 68964.17 62212.14 57547.87 54317.27 51798.88 49331.42 46596.05 43708.72 40953.99 38530.60 36507.02 34873.28 33575.95 32584.57 31838.29 31293.85 30916.90 30682.06 30571.83 30542.48 30652.90 30867.71 31187.17 31588.46 32112.10 32771.28 33560.07 34490.94 35579.41 36844.64 38310.58 40007.78 41975.06 44261.33 46928.71 50057.81 53756.37 58167.64 63512.96 70090.16 78335.04 88861.66 102504.19 120339.64 143670.95 173923.69 212490.84 260135.05 316028.34 376173.64 432620.71 476266.37 502528.61 512678.07 508774.18 490679.22 460095.49 423866.19 389801.26 360990.60 334711.04 305976.15 272827.39 237959.23 205543.15 178295.81 157151.28 142050.06 132590.09 128341.37 128953.19 134144.13 143575.63 156545.84 171502.70 185822.18 196894.69 204433.51 211207.76 220857.89 235370.76 253895.35 272754.81 287227.75 294672.38 295452.66 290460.27 279376.99 262548.95 242990.27 224632.10 209341.31 196032.83 182108.59 166099.23 148971.49 132827.08 119226.11 108803.19 101624.37 97548.65 96421.46 98156.40 102760.80 110316.79 120891.87 134343.71 150106.85 167376.86 186049.31 207489.76 233834.81 266099.01 302544.58 337215.64 360035.80 361376.85 339745.07 302878.06 261323.23 222412.99 189533.64 163550.00 144130.13 130487.22 121754.21 117186.80 116284.40 118861.89 125086.65 135486.07 150921.45 172515.75 201514.22 239034.79 285596.87 340173.78 398539.92 451321.36 484869.03 488498.04 463556.48 422536.31 379501.41 343616.93 318496.93 303766.97 295789.30 288423.36 275526.24 254900.95 229318.37 203317.55 180153.26 161284.83 147014.69 137096.01 131128.37 128708.30 129495.71 133264.92 139824.24 148941.23 160180.86 172887.55 186622.23 201894.90 220262.59 243511.73 272668.09 307243.01 344422.50 378825.55 404805.44 421353.27 434337.19 452867.04 484636.28 534170.69 602751.62 687379.93 778684.53 859719.15 911523.24 926551.99 916255.76 901903.54 900159.72 915953.83 941421.79 958361.85 947091.29 899266.47 821800.28 729050.54 634899.24 549385.07 477780.91 421327.76 378928.99 348671.02 328420.67 315766.13 308347.85 304982.26 306469.95 315106.49 333498.36 363962.94 408480.33 468149.78 542440.13 627454.35 714033.50 788182.77 836346.58 851777.90 835434.72 794421.36 741411.62 690623.56 651840.99 627917.10 615403.45 605754.86 588462.02 557002.29 512512.51 461189.60 409787.49 363499.90 325113.54 294909.84 271257.02 251774.72 234696.71 219388.64 205837.17 194066.27 184462.32 177916.07 175477.41 178002.18 186054.79 199878.19 219204.60 242752.46 267406.04 287705.90 297264.41 292663.13 276216.00 253895.11 231392.48 212262.97 198084.57 189258.11 185738.61 187687.24 195624.58 210173.45 231691.52 259853.96 293088.93 328180.54 360990.95 388539.02 410032.98 424681.04 429098.03 418799.86 393056.51 357083.87 318827.75 284757.07 258435.10 241121.55 232626.57 231672.11 235732.49 240695.24 241484.05 234160.98 218324.27 197110.04 174569.08 153622.84 135721.08 121324.03 110399.20 102706.90 98037.57 96181.99 97049.51 100659.32 107117.96 116550.52 128953.99 143938.02 160409.83 176536.70 190463.90 201405.74 209571.16 214625.09 214752.74 208003.04 194658.86 177610.83 160505.48 146002.94 135406.62 129105.93 126904.95 128117.57 131436.02 134781.89 135633.40 132177.40 124510.69 114333.08 103651.19 93840.75 85548.80 78947.44 73969.68 70448.55 68188.92 67005.26 66741.91 67283.28 68557.04 70533.81 73225.92 76688.23 81023.26 86392.95 93038.57 101298.15 111687.68 124872.38 141744.13 163422.66 191213.65 226606.63 271007.63 325526.92 390416.20 464040.04 541182.89 611306.00 659123.45 670741.84 642820.89 585184.48 513592.86 441284.69 375950.04 320775.49 276329.80 241913.10 216307.77 198176.41 186282.32 179616.98 177470.67 179467.09 185572.59 196123.81 211792.56 233594.57 262838.26 301089.36 349978.33 410982.39 484932.36 571096.67 665587.96 759330.50 837403.56 883430.77 889370.43 862225.02 819509.31 778908.53 751925.67 742891.80 749939.94 766520.64 784593.56 799264.07 810535.75 819275.50 821626.32 808267.38 770456.03 707722.26 628882.00 545872.69 467851.87 399613.82 342695.03 296855.09 261076.73 234135.81 214861.09 202310.07 195846.02 195165.40 200279.10 211450.87 229086.72 253507.95 284811.58 322057.01 362543.06 400755.88 428422.48 437404.60 424769.80 395123.11 357331.70 319607.44 287277.93 263050.18 248005.39 242400.50 245905.77 257666.43 275958.82 297557.59 317156.69</intensities>
      </xrdElement>
    </scan>
  </xrdMeasurement>
</xrdMeasurements>
