<?xml version="1.0" encoding="UTF-8"?>
<xrdMeasurements xmlns="http://www.xpdd.org/xrdml/1.0">
  <xrdMeasurement count="1" measurementType="Scan" status="Completed">
    <sample id="sample-1"><name>SiO2 quartz (COD 1009000)</name></sample>
    <scan count="1">
      <xrdElement id="elem-1">
        <commonParameters>
          <scanType>continuous</scanType>
          <tubeAnode>Cu</tubeAnode>
          <wavelengths>
            <kAlpha1>1.5405</kAlpha1>
            <kAlpha2>1.5443</kAlpha2>
          </wavelengths>
          <tubeVoltage>45</tubeVoltage>
          <tubeCurrent>40</tubeCurrent>
          <goniometer>
            <thetaMin>15.0</thetaMin>
            <thetaMax>140.0</thetaMax>
            <stepSize>0.02</stepSize>
            <scanAxis>2Theta/Theta</scanAxis>
          </goniometer>
        </commonParameters>
        <dataType>ASCII</dataType>
        <intensities>0.94 0.94 0.94 0.94 0.93 0.93 0.93 0.92 0.92 0.92 0.92 0.91 0.91 0.91 0.90 0.90 0.90 0.90 0.89 0.89 0.89 0.88 0.88 0.88 0.88 0.87 0.87 0.87 0.86 0.86 0.86 0.86 0.85 0.85 0.85 0.85 0.84 0.84 0.84 0.83 0.83 0.83 0.83 0.82 0.82 0.82 0.81 0.81 0.81 0.81 0.80 0.80 0.80 0.80 0.79 0.79 0.79 0.78 0.78 0.78 0.78 0.77 0.77 0.77 0.76 0.76 0.76 0.76 0.75 0.75 0.75 0.75 0.74 0.74 0.74 0.73 0.73 0.73 0.73 0.72 0.72 0.72 0.72 0.71 0.71 0.71 0.70 0.70 0.70 0.70 0.69 0.69 0.69 0.69 0.68 0.68 636.99 644.13 967.57 978.48 989.57 1000.86 1012.34 1024.01 1035.90 1047.98 1060.29 1072.81 1085.55 1098.52 1111.73 1125.18 1138.87 1152.81 1167.01 1181.48 1196.22 1211.23 1226.53 1242.12 1258.01 1274.21 1290.72 1307.56 1324.73 1342.24 1360.10 1378.32 1396.90 1415.87 1435.22 1454.98 1475.14 1495.73 1516.75 1538.22 1560.15 1582.55 1605.44 1628.83 1652.73 1677.17 1702.15 1727.69 1753.81 1780.53 1807.87 1835.84 1864.46 1893.76 1923.75 1954.47 1985.93 2018.15 2051.16 2084.99 2119.67 2155.22 2191.67 2229.05 2267.40 2306.74 2347.12 2388.57 2431.13 2474.84 2548.46 2594.90 2642.64 2706.10 2756.71 2808.75 2862.29 2917.37 2974.07 3032.44 3092.55 3154.47 3218.28 3284.05 3351.86 3421.80 3493.96 3568.43 3645.32 3724.73 3806.76 3891.55 3979.21 4069.88 4163.69 4260.80 4361.35 4465.51 4573.46 4685.39 4801.49 4921.98 5047.07 5177.01 5312.04 5452.45 5598.52 5750.55 5908.89 6073.87 6245.88 6425.34 6612.66 6808.32 7012.83 7226.71 7450.57 7685.03 7930.77 8188.52 8459.08 8743.33 9042.19 9356.70 9687.95 10037.17 10405.68 10794.92 11206.50 11642.14 12103.77 12593.51 13113.67 13666.83 14255.87 14883.94 15554.58 16271.74 17039.81 17863.74 18749.11 19711.39 20739.33 21850.08 23057.45 24362.68 25782.34 27330.21 29022.25 30876.96 32915.88 35164.29 37651.94 40414.05 43492.58 46937.85 50810.57 55184.59 60150.41 65819.95 72332.91 79865.48 88642.40 98953.98 111180.42 125827.52 143579.75 165381.94 192567.47 227066.88 271759.09 331088.30 412201.38 527187.59 698521.33 985973.32 1680016.72 4112062.16 11332607.80 23877981.64 31901954.29 27713163.83 22149089.39 15992686.96 8354300.51 3396271.58 1456543.88 855511.64 611331.49 467155.90 369373.99 299547.61 247909.16 208631.50 178052.23 153774.25 134174.60 118122.29 104809.32 93645.78 84192.78 76118.30 69167.31 63141.31 57883.95 53270.69 49201.36 45594.65 42384.03 39514.63 36940.89 34624.74 32534.21 30642.28 28926.02 27365.91 25945.25 24649.74 23467.11 22386.81 21399.79 20498.32 19675.82 18926.75 18246.52 17631.44 17078.66 16586.21 16152.97 15778.77 15464.48 15212.14 15025.23 14908.98 14870.82 14921.06 15073.84 15348.55 15771.88 16381.06 17228.75 18391.05 19980.75 22170.24 25232.96 29622.86 36146.99 46603.40 68237.05 137435.02 364881.15 851332.59 1341933.96 1296383.94 1022923.72 842206.92 546978.67 257004.35 106402.96 55057.75 41612.48 33105.08 27621.76 25652.36 22864.96 20767.65 19149.07 17873.66 16851.16 16019.53 15334.97 14765.83 14288.76 13886.22 13544.84 13254.27 13006.40 12794.80 12614.33 12460.84 12330.95 12221.89 12131.39 12057.55 11998.81 11953.87 11921.64 11901.24 11891.91 11893.07 11904.23 11925.03 11955.20 11994.56 12043.04 12100.65 12167.51 12243.82 12329.93 12426.28 12533.49 12652.35 12783.87 12929.33 13090.35 13268.98 13467.85 13690.33 13940.79 14224.98 14550.58 14927.98 15371.56 15901.60 16547.55 17353.36 18386.98 19757.98 21652.40 24421.89 29051.24 40301.47 78277.97 183878.79 354440.59 443391.57 366317.61 298484.07 251926.38 159329.88 79674.47 42475.29 30428.87 26229.01 24085.62 22759.34 21903.50 21351.89 21007.83 20811.44 20724.05 20719.82 20780.95 20894.92 21052.73 21247.85 21475.43 21731.90 22014.58 22321.51 22651.22 23002.67 23375.14 23768.15 24181.47 24615.02 25068.88 25543.26 26038.49 26555.01 27093.35 27654.14 28238.09 28846.00 29478.77 30137.37 30822.86 31536.40 32279.24 33052.74 33858.33 34697.59 35572.20 36483.97 37434.83 38426.87 39462.33 40543.63 41673.34 42854.26 44089.39 45381.95 46735.46 48153.65 49640.61 51200.73 52838.78 54559.94 56369.79 58274.46 60280.58 62395.36 64626.74 66983.31 69474.54 72110.79 74903.46 77865.06 81009.43 84351.83 87909.15 91700.13 95745.61 100068.82 104695.69 109655.26 114980.13 120706.99 126877.30 133537.97 140742.33 148551.11 157033.84 166270.33 176352.55 187387.01 199497.52 212828.72 227550.44 243863.05 262004.57 282259.19 304968.66 330546.81 359498.65 392445.49 430158.95 473606.64 524015.13 582957.97 652480.78 735282.22 834981.17 956520.94 1106797.35 1295662.52 1537585.96 1854510.22 2280990.18 2873963.48 3733705.54 5077163.10 7716780.48 15561424.68 40660964.63 95587558.63 155478510.12 152125167.95 112640514.72 98513874.25 84895515.16 50351409.03 22201954.25 9537951.87 5360944.95 3760333.30 2863672.11 2263164.60 1835666.33 1519913.47 1279836.11 1092895.03 944396.85 824420.73 726065.49 644406.63 575851.64 517728.16 468014.57 425157.65 387948.13 355432.74 326851.73 301593.37 279160.75 259146.64 241214.76 225085.41 210524.42 197334.52 185348.54 174424.07 164439.21 155289.06 146882.99 139142.36 131998.66 125392.00 119269.80 113585.76 108299.03 103373.39 98776.66 94480.16 90458.29 86688.11 83149.04 79822.55 76691.93 73742.10 70959.40 68331.42 65846.89 63495.56 61268.05 59155.84 57151.08 55246.61 53435.85 51712.74 50071.71 48507.63 47015.77 45591.73 44231.47 42931.23 41687.54 40497.15 39357.07 38251.09 37203.52 36198.42 35226.84 34300.09 33409.45 32553.07 31729.21 30936.85 30173.26 29437.61 28728.55 28045.11 27385.51 26748.92 26134.27 25540.58 24966.90 24412.34 23876.06 23357.27 22855.21 22369.18 21898.49 21442.50 21000.62 20572.27 20156.89 19753.97 19363.02 18983.57 18615.16 18257.38 17909.82 17572.10 17243.84 16924.70 16614.35 16312.45 16018.72 15732.85 15454.57 15183.61 14919.71 14662.65 14412.17 14168.06 13930.10 13698.09 13471.83 13251.14 13035.82 12825.72 12620.65 12420.47 12225.02 12034.15 11847.71 11665.58 11487.62 11313.70 11143.71 10977.52 10815.02 10656.11 10500.68 10348.62 10199.85 10054.27 9911.78 9772.31 9635.75 9502.05 9371.11 9242.87 9117.24 8989.88 8869.31 8749.00 8633.20 8519.69 8408.41 8299.30 8192.30 8087.36 7984.42 7883.45 7784.37 7687.16 7591.76 7498.13 7406.23 7316.00 7227.42 7140.45 7055.03 6971.15 6888.75 6807.82 6728.30 6650.17 6573.41 6497.96 6423.82 6350.94 6279.30 6208.87 6139.62 6071.53 6004.57 5938.72 5873.96 5810.25 5747.58 5685.93 5625.27 5565.58 5506.85 5449.05 5392.16 5336.16 5281.05 5226.79 5173.37 5120.78 5068.99 5018.00 4967.78 4918.33 4869.62 4821.65 4774.39 4727.84 4681.98 4636.80 4592.29 4548.43 4505.22 4462.63 4420.67 4379.32 4338.56 4298.40 4258.81 4219.80 4181.35 4143.44 4106.09 4069.27 4032.97 3997.20 3961.94 3927.19 3892.94 3859.19 3825.92 3793.14 3760.84 3729.02 3697.68 3666.80 3636.40 3606.47 3577.00 3548.01 3519.49 3491.45 3463.89 3436.82 3410.25 3384.20 3358.67 3333.68 3309.27 3285.45 3262.26 3239.75 3217.96 3196.97 3176.84 3157.69 3139.63 3122.82 3107.47 3093.82 3082.23 3073.12 3067.11 3065.00 3067.94 3077.56 3096.25 3127.63 3177.39 3254.91 3376.69 3578.82 3992.90 5203.18 8886.60 16717.08 23550.93 22826.57 15695.25 12746.31 13060.87 11241.67 6372.68 2829.35 1308.84 787.63 567.67 437.90 349.38 285.62 238.05 201.58 172.95 150.06 131.45 116.11 103.31 92.52 83.32 75.43 68.60 62.66 57.44 52.85 48.77 45.15 41.90 38.99 499.50 501.83 504.44 507.32 740.66 746.34 752.27 758.43 764.83 771.43 778.25 785.28 792.50 799.92 807.53 815.34 823.33 831.51 839.88 848.43 857.17 866.11 875.23 884.54 894.04 903.74 913.64 923.73 934.03 944.53 955.24 966.17 977.30 988.66 1000.24 1012.05 1024.09 1036.37 1048.89 1061.66 1074.68 1087.96 1101.50 1116.60 1130.70 1145.09 1159.77 1174.74 1190.66 1206.26 1222.18 1238.43 1255.02 1271.95 1289.24 1306.89 1324.92 1343.33 1362.14 1381.36 1400.99 1421.06 1441.56 1462.52 1483.95 1505.86 1528.27 1551.18 1574.63 1598.61 1623.16 1648.28 1673.99 1700.32 1727.28 1754.89 1783.17 1812.15 1841.85 1872.29 1903.49 1935.49 1968.30 2001.96 2036.50 2071.94 2108.32 2145.67 2184.03 2223.43 2263.91 3414.51 3468.38 3523.63 3580.31 4188.35 4253.51 4320.34 4388.89 4459.23 4531.43 4605.55 4681.67 4759.87 4840.23 4922.82 5007.75 5095.10 5184.97 5277.47 5372.70 5470.79 5571.85 5676.01 5783.41 5894.19 6008.50 6126.51 6248.39 6374.31 6504.47 6639.07 6778.33 6922.47 7071.75 7226.43 7386.78 7553.11 7725.72 7904.96 8091.19 8284.81 8486.22 8695.89 8914.29 9141.94 9379.39 9627.27 9886.21 10156.92 10440.17 10736.77 11047.64 11373.75 11716.16 12076.04 12454.64 12853.37 13273.74 13717.43 14186.27 14682.29 15207.74 15765.08 16357.08 16986.78 17657.61 18373.37 19138.33 19957.27 20835.61 21779.45 22795.70 23892.23 25078.02 26363.34 27760.04 30034.27 31704.29 33533.73 35544.17 37761.04 40590.48 43319.92 46364.69 49776.58 53618.58 57967.87 62919.93 68593.93 75140.21 82750.72 91673.56 102234.06 114865.61 130155.93 148918.14 172303.32 201984.33 240467.19 291642.15 361809.29 461798.75 613447.47 884888.05 1565724.61 3576290.35 8238639.73 14658709.21 16566950.55 11610969.72 7400031.06 7336842.75 9021673.11 7753381.08 4413274.85 2020723.28 974361.94 600732.45 438804.49 342847.53 277291.80 229992.47 194671.55 167574.45 146324.41 129354.07 115594.14 104293.79 94912.62 87053.30 80418.26 74780.99 69966.61 65838.42 62288.46 59230.68 56596.00 54328.73 52383.94 50725.47 49324.71 48159.76 47215.23 46482.90 45963.57 45671.64 45648.49 46031.26 47416.91 51885.81 63094.78 80665.35 90330.11 79514.55 66490.37 64297.01 69990.92 70968.67 63591.39 56995.05 54408.19 54430.31 55488.20 56980.00 58764.76 60814.13 63126.55 65712.82 68591.57 71788.49 75335.97 79273.48 83648.40 88517.37 93948.00 100021.18 106834.12 114504.23 123174.24 133018.86 144253.79 157147.63 172038.34 189355.73 209653.25 233653.31 262313.40 296924.06 339259.15 391810.28 458166.51 544522.85 657300.21 810385.49 1025657.39 1344257.75 1876225.52 3062470.27 6481672.33 15175095.24 29638220.86 39387884.07 31383345.95 18919150.28 14802292.97 18572806.56 20843755.46 14883907.20 7619175.28 3474408.83 1846829.14 1237368.03 932832.41 738102.65 601307.43 500929.87 424942.24 365957.48 319215.41 281530.24 250700.90 225165.02 203787.20 185725.64 170344.93 157158.08 145786.61 135932.86 127360.14 119878.75 113334.67 107602.85 102580.70 98183.73 94342.28 90998.47 88104.70 85621.70 83517.31 81765.58 80345.98 79242.81 78444.82 77944.92 77740.00 77830.91 78222.51 78923.90 79948.65 81315.34 83048.15 85177.75 87742.32 90789.06 94376.03 98574.51 103472.23 109177.47 115824.58 123581.37 132659.14 143326.46 155928.42 170914.01 188875.66 210607.60 237194.16 270146.51 311621.26 364782.42 434415.75 528045.73 658047.07 846458.24 1143503.59 1729475.52 3306811.01 7615131.63 16106913.25 25078469.20 23965847.48 15166149.06 9612262.47 10211354.25 13525430.61 12736262.37 7793768.63 3733297.93 1779772.35 1052352.58 751029.00 580944.00 466617.22 384559.27 323420.69 276540.99 239740.89 210282.98 186309.73 166522.53 149989.86 136028.59 124127.92 113899.34 105042.89 97323.84 90556.24 84591.19 79308.32 74609.36 70413.48 66653.70 63274.10 60227.73 57474.93 54982.00 52720.18 50664.85 48794.78 47091.63 45539.52 44124.63 42834.93 41659.89 40590.30 39618.11 38736.25 37938.51 37219.48 36574.40 35999.15 35490.12 35044.21 34658.78 34331.57 34060.73 33844.75 33682.47 33573.03 33515.88 33670.36 33718.90 33819.93 33974.09 34182.35 34525.14 34846.50 35228.35 35670.00 36175.71 36748.66 37392.55 38111.57 38911.31 39795.72 40771.77 41846.53 43028.00 44325.31 45748.83 47310.31 49023.25 50903.03 52967.31 55236.37 57733.70 60486.36 63525.89 66889.09 70619.14 74766.89 79392.69 84568.37 90380.13 96932.15 104351.11 112792.42 122448.47 133559.52 146429.05 161444.65 179107.85 200076.97 225229.86 255758.45 293313.98 340237.67 399937.87 477530.27 580973.50 723193.88 926655.92 1238810.62 1813446.67 3251060.70 7205490.03 15640440.83 26417641.59 28658327.62 19509240.71 11275796.22 9515392.48 12915208.02 15694487.54 12197511.10 6657373.70 3122803.74 1613166.27 1042279.68 772912.59 606671.72 491210.39 406910.27 343282.57 293970.60 254910.44 223399.58 197580.62 176140.51 158128.35 142840.85 129748.25 118444.91 108615.87 100013.35 92440.30 85738.48 79779.77 74459.94 69694.08 65413.73 61566.80 58129.44 55165.01 52940.26 51818.84 51468.75 49856.96 46062.24 42404.15 40097.75 39003.51 38155.92 36262.66 33820.14 31777.53 30243.65 29007.37 27916.24 26913.28 25980.23 25108.17 24290.58 23523.13 22801.51 22122.30 21482.58 20879.82 20311.86 19776.84 19273.23 18799.82 18355.73 17940.50 17554.17 17197.43 16871.86 16580.40 16328.04 16123.06 15979.45 15921.78 16000.29 16366.58 17607.67 21457.54 30414.87 43371.65 48941.58 39188.14 27709.97 23214.04 25770.34 30642.13 29554.48 22832.25 17198.02 14339.43 13172.70 12633.29 12565.19 12326.30 12144.15 12002.15 11890.73 11803.97 11870.40 11824.23 11286.74 11276.78 11282.13 11302.55 11338.01 11134.89 11202.94 11287.16 11388.25 11507.08 11644.71 11802.35 11981.42 12183.57 12410.66 12664.88 12948.69 13265.25 13617.25 14565.49 15006.06 15495.65 16040.15 16646.57 17322.73 18355.71 19204.50 20157.43 21230.65 22443.64 23820.09 25389.06 27186.50 29257.32 31658.20 34461.49 37760.80 41678.92 46379.51 52084.64 59101.78 67866.56 79012.59 93489.98 112774.88 139261.91 177118.43 235223.85 342082.47 604241.29 1302187.96 2758784.32 4620920.72 5057617.73 3487829.52 1962366.50 1451511.36 1885372.63 2641299.49 2579564.57 1667044.12 854319.94 423591.35 249394.48 180576.34 149453.37 129656.09 106618.71 84223.71 67961.93 57258.94 49819.91 44135.28 39550.59 35762.85 32587.61 29895.31 27590.47 25600.90 23871.01 22357.24 21025.05 19502.13 18457.32 17525.31 16690.86 15941.27 15093.57 14484.58 13933.20 13432.93 12978.19 12564.19 12186.76 11842.30 11527.66 11240.08 10977.16 10736.76 10517.01 10316.25 10133.01 9965.97 9813.97 9675.99 9551.08 9438.43 9337.28 9246.98 9166.95 9096.64 9035.59 8983.38 8939.62 8904.00 8876.20 8855.98 8843.10 8837.37 8838.62 8846.72 8861.53 8882.98 8910.98 8945.49 8986.48 9033.94 9087.88 9148.33 9215.34 9288.97 9369.34 9456.50 9550.62 9651.83 9760.31 9876.23 9999.81 10131.29 10270.92 10418.99 10575.80 10741.71 10917.08 11102.32 11297.87 11504.21 11721.86 11951.39 12193.42 12448.62 12717.71 13001.50 13300.83 13616.66 13950.02 14302.01 14673.88 15066.96 15482.72 15922.79 16388.93 16883.13 17407.53 17964.54 18556.82 19187.32 19859.35 20576.57 21343.12 22163.64 23043.35 23988.15 25004.78 26100.86 27285.15 28567.68 29960.04 31475.65 33130.17 34941.91 36932.46 39127.42 41557.32 44258.90 47276.65 50664.92 54490.77 58837.73 63810.99 69544.70 76212.18 84040.73 93333.45 104502.13 118118.02 134992.86 156311.90 183861.59 220435.41 270610.84 342603.65 455567.20 674678.88 1222963.55 2590897.55 5159358.19 7934747.28 7838059.24 5104478.28 2847538.04 2113939.50 2733953.72 4010500.60 4374188.34 3104204.75 1697770.18 884019.58 544796.90 415308.81 357632.33 329217.73 318183.38 320723.49 335711.42 363888.48 407866.27 472731.94 567601.24 709217.97 937452.96 1386885.38 2514689.75 5328038.46 10627886.93 16442445.84 16404383.88 10738858.71 5933956.47 4239291.16 5354995.10 7995745.08 9116393.85 6690255.92 3654523.88 1798314.10 986335.13 658466.34 495633.03 393265.44 321495.72 268666.84 228492.05 197256.74 172254.29 151954.54 135218.44 121237.30 109423.06 99339.09 90655.18 83117.57 76528.38 70731.35 65601.61 61038.36 56959.41 53297.17 49995.65 47008.08 44295.14 41823.57 39565.08 37495.46 35593.89 33842.38 32225.34 30729.17 29341.96 28053.27 26853.89 25735.69 24691.44 23714.73 22799.82 21941.60 21135.47 20377.29 19663.35 18989.79 18354.56 17754.41 17186.82 16649.52 16140.42 15657.37 15199.14 14763.88 14350.11 13956.51 13581.83 13224.93 12884.75 12560.33 12250.75 11955.19 11672.87 11403.07 11145.12 10898.41 10662.36 10436.83 10220.51 10013.33 9814.87 9624.69 9442.44 9267.74 9100.26 8939.89 8785.92 8638.29 8496.74 8361.02 8230.90 8106.17 7986.63 7872.08 7762.36 7657.29 7556.71 7460.49 7368.48 7280.56 7196.60 7116.49 7040.12 6967.40 6898.24 6832.55 6770.25 6711.27 6655.54 6603.00 6553.59 6507.27 6463.98 6423.69 6386.36 6351.95 6320.45 6291.83 6266.06 6243.15 6223.09 6205.86 6191.46 6179.93 6171.24 6165.43 6162.52 6162.53 6165.48 6171.43 6180.41 6119.88 6135.54 6154.39 6176.50 6201.94 6230.81 6226.93 6263.14 6302.39 6346.16 6393.88 6445.71 6501.78 6562.27 6627.00 6696.86 6771.70 6851.76 6937.27 7028.51 7125.75 7229.30 7339.51 7456.73 7581.36 7713.83 7854.62 8004.24 8163.24 8332.24 8664.01 8856.43 9061.09 9278.88 9510.78 9757.87 10021.37 10302.60 10679.41 11001.42 11346.18 11715.77 12112.54 12539.13 12998.53 13494.15 14029.88 14610.17 15240.14 15925.71 16673.77 17492.35 18390.88 19380.52 20474.52 21688.75 23042.39 24558.74 26266.41 28200.86 30406.52 32941.04 35874.06 39301.06 43346.60 48178.46 54027.12 61216.53 70214.40 81713.12 96779.57 117122.55 145679.00 188549.44 263812.11 432976.64 851943.91 1718738.81 2930059.03 3521879.06 2698815.76 1566998.10 903845.21 776794.44 1078315.61 1620997.95 1869565.99 1421609.13 826547.17 449127.45 279938.94 215430.77 190187.44 181253.27 182535.16 192724.28 212467.65 244156.76 292714.92 368605.54 501692.82 794528.38 1526802.00 3116781.54 5546670.79 7211014.86 5959232.36 3565449.72 1974710.75 1490296.86 1915639.41 2962058.16 3774385.22 3170729.14 1902771.71 978339.10 520401.44 329115.98 240772.00 188935.24 153610.59 127945.58 108602.03 93610.19 81722.18 72113.47 64220.38 57646.15 52104.41 47383.90 43325.72 39808.34 36737.41 34038.67 31652.99 29532.73 27639.19 25940.58 24410.63 23027.42 21772.58 20630.57 19588.21 18634.22 17758.94 16954.02 16212.25 15527.34 14893.82 14306.90 13762.41 14059.67 13596.36 13165.83 12765.61 12393.56 12047.88 11727.89 11430.77 11558.22 11309.96 11084.45 10762.07 10587.03 10442.17 10335.62 10282.23 10324.97 10547.54 11480.60 13745.09 17526.25 20717.93 19312.97 15217.46 12119.57 10828.92 11060.91 12473.28 14186.17 14075.61 12048.05 10155.48 9073.02 8580.87 8353.23 8223.46 8136.62 8075.48 8032.62 8004.20 7733.60 7728.79 7733.13 7745.93 7766.67 7795.20 7831.31 7748.43 7800.37 7859.92 7927.23 8002.48 8085.94 8177.90 8278.71 8388.77 8508.53 8638.53 8779.33 8931.60 9096.06 9273.53 9464.92 9671.26 9893.69 10133.49 10392.10 10671.11 10972.36 11297.88 11649.98 12031.30 12444.82 12893.92 13382.51 13915.05 14496.69 15133.40 15832.10 16600.89 17449.26 18388.43 19431.70 20594.96 21897.32 23361.91 25016.96 26897.22 29045.87 31517.07 34379.55 37721.60 41658.13 46341.03 51974.43 58837.84 67322.38 77988.62 91662.84 109603.49 133798.83 167592.50 217520.18 301155.94 476241.39 898199.26 1808207.48 3241427.75 4382601.35 3835269.60 2387064.43 1311641.99 861281.95 923919.32 1402026.51 2080310.55 2272620.81 1650571.31 930920.42 483564.35 275800.00 186633.57 141579.87 113439.14 94051.99 79641.55 68729.27 60263.83 53570.27 48200.16 43848.55 40306.66 37435.50 35284.25 33605.00 32760.64 33625.71 38040.48 47505.70 58860.64 59968.50 48112.65 36061.90 29222.21 27278.96 29231.33 34196.79 38626.08 36183.88 29417.95 23995.70 21045.67 19692.09 19031.46 18643.26 18388.95 18222.33 18121.55 18073.74 18070.63 18106.69 18178.13 18282.29 18417.34 18582.01 18775.47 18997.28 19247.23 19525.41 19832.10 20167.78 20533.14 20929.02 21356.47 21816.72 22311.18 22841.47 23409.40 24017.03 24666.66 25360.82 26102.37 26894.46 27740.61 28644.72 29611.11 30644.61 31750.59 32935.01 34204.56 35566.70 37029.80 38603.26 40297.63 42124.87 44098.47 46233.76 48548.18 51061.66 53797.05 56780.64 60042.78 63618.73 67549.54 71883.33 76676.77 81996.94 87923.75 94553.05 102000.55 110407.07 119945.32 130829.09 143325.61 157772.41 174600.97 194370.00 217813.43 245911.02 279994.41 321910.41 374280.26 440923.23 527574.87 643161.43 802279.61 1031575.91 1394477.03 2088944.21 3690551.01 7300868.95 13720378.67 20921067.95 21782594.99 15219766.68 8624298.82 4957212.18 3965614.70 5059179.30 7933559.16 11208875.54 11196411.46 7657270.93 4242296.76 2237949.26 1319643.66 914722.10 699398.08 557250.75 455050.16 379655.70 322699.46 278468.33 243237.83 214612.49 190986.96 171232.38 154528.23 140264.42 127925.78 117262.66 107943.81 99749.30 92503.14 86063.04 80312.80 75130.34 70489.39 66296.99 62497.33 59043.16 55894.26 53016.19 50379.36 47958.17 45730.44 43676.83 41780.43 40026.39 38401.67 36894.73 35495.37 34194.51 32984.28 31857.15 30806.86 29717.98 28805.39 27954.11 27160.00 26419.31 25728.69 25085.21 24431.12 23874.13 23356.85 22877.34 22433.85 22024.84 21648.95 21305.00 20991.95 20708.94 20455.24 20230.27 20033.61 19864.95 19724.14 19611.17 19526.17 19469.44 19442.00 19443.31 19474.76 19537.36 19632.35 19761.21 19925.74 20128.03 20370.59 21175.24 21512.08 21900.02 22344.19 22850.95 23428.28 24086.49 24839.36 25706.25 26975.76 28186.57 29736.68 32034.44 35989.73 42683.50 51642.10 57709.28 55419.59 50466.77 48029.92 48752.99 52003.30 58132.65 65785.25 73772.14 78714.77 82199.03 87762.39 96518.75 108571.18 124178.10 144491.78 170485.85 204971.54 252028.48 318839.61 421169.31 605115.92 1007502.33 1920341.47 3651907.01 5943615.38 7026928.38 5492202.96 3293036.33 1836514.69 1222619.34 1230797.93 1775570.34 2775713.22 3629324.76 3252049.09 2095810.89 1149789.81 626297.87 387738.95 277283.16 215597.13 175014.66 146361.71 126054.04 112804.33 105900.11 102455.37 94871.49 81152.16 68231.31 59017.17 53114.82 49703.48 48516.28 49041.33 48701.90 44754.34 38876.10 34207.69 31069.37 28917.81 27260.92 25862.80 24634.57 23537.69 22549.20 21853.50 21038.26 20292.70 19608.74 18979.63 18399.68 17864.03 17368.45 16909.28 16483.30 16087.69 15719.94 15377.82 15059.33 14762.71 14486.36 14228.84 13988.85 13765.22 13556.89 13362.90 13182.37 13014.52 12858.60 12713.97 12580.01 12456.18 12341.96 12236.91 12140.59 12052.61 11972.63 11900.30 11835.35 11777.49 11726.48 11682.08 11644.10 11612.34 11586.63 11566.82 11552.77 11544.35 11541.46 11543.98 11482.65 11496.18 11514.91 11538.78 11567.75 11601.79 11640.86 11684.99 11699.63 11754.01 11813.44 11877.92 11947.51 12022.24 12102.15 12187.30 12277.76 12373.61 12474.92 12581.80 12694.34 12812.66 12936.87 13067.12 13203.55 13346.31 13495.56 13651.50 13814.31 13984.18 14161.36 14346.06 14538.53 14738.45 14947.29 15164.77 15391.19 15626.90 15872.77 16128.18 16394.05 16670.52 16958.66 17258.67 17571.08 17896.46 18235.42 18588.62 18957.00 19340.80 19741.08 20158.70 20594.57 21049.68 21525.10 22021.98 22541.55 23085.15 23654.23 24250.37 24875.28 25530.82 26219.05 26942.19 27702.75 28503.47 29347.46 30238.22 31179.82 32489.13 33550.25 34680.32 35890.11 37199.84 38659.87 40391.60 42593.98 45381.67 48504.08 50391.79 51097.96 51930.20 53411.33 55501.94 58086.79 61160.29 64741.87 68606.92 72137.80 75390.23 79047.66 83382.95 88409.43 94106.09 100505.19 107694.71 115803.27 124996.90 135486.05 147538.96 161502.05 177832.05 197157.98 220415.58 249079.19 285292.92 331454.18 388938.72 457686.61 544874.55 667311.65 851121.73 1160709.63 1784618.52 3163871.75 5911924.86 10105612.49 13680941.18 12630485.42 8427882.56 4868783.88 2923072.98 2244039.65 2458777.09 3549412.10 5470112.82 7250910.80 6837376.26 4719640.96 2849596.00 1778245.80 1312601.33 1163193.49 1171222.73 1300036.53 1607636.45 2318261.04 3953099.60 7196082.76 12023360.93 15826663.19 14191247.73 9324924.01 5359196.28 3221456.54 2478768.87 2721774.92 3946605.97 6109371.60 8118471.49 7635684.86 5182168.97 2982747.04 1675999.84 1043724.88 746173.10 583780.90 478757.84 404191.18 348804.04 306480.40 273447.18 247245.95 226218.68 209216.39 195425.61 184261.44 175299.83 168233.62 162843.95 158981.44 156554.42 155522.16 155892.35 157722.28 161124.04 166274.38 173430.81 182956.40 195357.21 211340.40 231903.44 258476.79 293157.13 339102.30 401237.28 487706.24 614022.84 818532.85 1212185.34 2070753.13 3840160.61 6762679.63 9880778.68 10212318.90 7352118.60 4356869.09 2508262.06 1702372.45 1592726.13 2075412.54 3213963.95 4765210.84 5491493.67 4373021.45 2709392.80 1516384.04 876936.68 576431.39 426974.19 338332.89 277982.53 233975.03 200647.52 174703.97 154049.15 137291.09 123474.17 111923.68 102151.55 93797.03 86588.43 80318.03 74823.37 69977.37 65678.45 61844.69 58409.44 55317.92 52524.79 49992.22 47688.38 45586.40 43663.61 41900.06 40279.15 38786.34 37409.06 36136.34 34958.61 33867.48 32855.19 31915.98 31043.72 30233.32 29480.26 28780.52 28130.53 27527.12 26967.28 26448.85 25969.42 25527.01 25119.87 24746.46 24405.44 24095.63 23816.05 23565.85 23344.34 23150.97 22985.33 22847.17 22736.33 22652.84 22596.81 22838.49 22840.48 22756.64 22817.71 22909.33 23032.62 23189.03 23380.20 23608.11 23875.16 24261.10 24616.83 25022.13 25482.24 26003.88 26596.06 27271.35 28049.31 28968.02 30123.52 31762.11 34356.18 38386.63 43524.06 47128.98 46398.71 44078.22 42917.18 43341.00 44977.04 47545.15 51098.44 55761.92 61105.85 65495.00 68402.96 71710.36 76477.54 82866.31 90844.40 100511.93 112176.77 126346.10 143751.89 165436.45 192909.72 228417.06 275410.66 339480.25 430806.94 572838.34 830905.89 1372279.44 2497713.93 4464116.10 6918127.87 8006490.98 6372328.91 3981887.34 2288988.27 1426663.19 1132290.22 1231717.54 1748028.20 2728089.92 3855544.00 4068126.91 3029459.32 1834433.43 1033879.93 613407.75 412481.05 308433.30 244714.01 200687.29 168378.33 143846.66 124749.98 109539.98 97099.41 86728.81 78041.43 70718.76 64488.20 59132.28 54485.25 50421.64 46844.46 43676.88 40857.12 38334.87 36068.81 34024.71 32174.02 30492.73 28960.53 27560.18 26276.92 25098.08 24012.72 23011.41 22085.91 21229.08 20434.69 19697.30 19012.17 18375.18 17782.78 17231.94 16720.12 16245.28 15805.87 15400.92 15030.10 14693.86 14393.71 14132.57 13915.45 13750.54 13651.03 13638.78 13753.12 14080.62 14855.78 16772.28 20886.03 28583.52 39297.96 46608.08 41818.03 30852.56 22010.97 16993.25 14824.20 14464.99 15776.15 19045.81 24024.55 27688.24 25446.46 19794.60 15055.95 12209.60 10747.05 9988.17 9529.63 9206.15 8957.19 8756.68 8590.35 8449.73 8328.17 8222.06 8128.59 8045.71 7971.91 7906.06 7847.28 7794.89 7923.25 7883.46 7848.96 7819.10 7793.85 7773.02 7756.49 7896.53 7889.38 7886.27 7887.14 7979.27 7988.69 8002.06 8019.39 8040.71 8066.06 8095.41 8205.04 8243.39 8286.06 8333.14 8384.73 8440.98 8502.01 8567.98 8639.02 8715.40 8797.28 8884.88 8978.46 9078.27 9184.62 9297.84 9418.27 9546.32 9682.43 9827.08 9980.84 10144.31 10318.22 10503.39 10700.77 10911.52 11137.03 11379.04 11639.79 11922.23 12230.22 12570.24 12951.48 13391.68 13933.59 14689.79 15906.05 17928.95 20887.96 23904.16 24327.94 22431.64 20431.37 19371.86 19195.40 19600.72 20427.61 21721.85 23581.95 25705.88 27472.26 27682.07 27460.40 27690.25 28498.16 29749.25 31303.12 33097.12 35122.44 37396.30 39948.84 42879.93 46120.73 49793.44 53707.83 58499.91 64023.69 70434.77 77935.92 86791.20 97349.63 110082.28 125635.39 144914.97 169088.39 200343.69 241476.90 297200.47 376030.24 497104.66 711349.37 1144073.07 2018971.22 3545471.52 5542947.11 6739378.90 5735918.88 3769250.36 2223267.33 1349542.51 967654.86 886334.80 1056490.85 1544713.51 2384205.76 3283506.05 3387348.11 2522016.76 1554428.34 897736.19 541989.92 366235.06 273757.23 217143.41 178101.55 149433.86 127620.53 110588.00 97004.36 85976.24 76885.46 69292.73 62878.55 57405.75 52695.04 48608.72 45039.43 41902.45 39130.05 36667.61 34470.55 32322.42 30553.51 28957.65 27788.73 26480.32 25290.31 24205.61 23214.95 22308.63 21388.14 20626.84 19927.79 19285.43 18694.90 18151.97 17790.70 17333.33 16913.87 16529.98 16179.68 15861.46 15574.23 15317.42 15091.12 14896.29 14735.13 14611.78 14533.67 14515.24 14588.45 14839.91 15481.71 16897.53 19469.44 22971.40 25350.98 23876.00 20342.01 17412.90 15696.60 14915.88 14705.03 14922.64 15656.95 17068.95 18865.91 19870.84 18936.45 17249.05 15976.41 15307.52 15067.05 15054.93 15154.71 15318.07 15527.75 15792.88 16077.92 16398.45 16754.92 17148.71 17581.98 18057.62 18579.25 19151.23 19778.83 20468.26 21227.10 22063.85 22989.22 24015.82 25158.94 26437.14 27873.20 29495.30 31338.64 33447.72 35879.43 38707.51 42028.96 45973.55 50718.01 56508.18 63694.01 72787.13 84559.73 100234.90 121959.73 154329.04 209094.98 315203.13 527047.18 905113.24 1438061.49 1870824.73 1751703.95 1235186.51 762555.38 468745.78 324743.31 272534.94 281314.06 356624.14 521377.75 771920.89 992096.12 950174.63 692199.19 444708.01 285435.13 202065.09 162757.70 144290.70 135636.30 132608.61 133679.13 138367.37 146634.08 159047.48 176513.45 200004.90 229890.50 266708.06 316159.00 390425.80 515144.72 751538.01 1216909.93 2049846.43 3252958.95 4330382.48 4255490.16 3215943.36 2272921.45 1881034.87 2120608.35 2920042.84 3940251.62 4329801.11 3827512.00 3324272.64 3149835.62 2827437.92 2134160.08 1493255.50 1144390.39 1126390.20 1407233.60 1852365.88 2066656.08 1718673.91 1158682.99 719951.88 455796.71 315635.33 240754.78 195693.72 164891.36 142162.87 124699.19 110928.66 99854.68 90807.99 83323.52 77069.31 71802.98 67344.20 63556.66 60336.08 57602.02 55292.11 53358.15 51763.13 50479.35 49486.94 48772.97 48330.95 48160.59 48268.00 48666.10 49375.56 50426.14 51858.69 53728.03 56107.00 59092.29 62812.93 67442.58 73218.03 80468.51 89655.66 101451.12 116851.68 137396.31 165640.64 206542.20 271870.05 391278.90 627751.99 1073108.46 1781668.95 2593677.86 2895224.99 2332303.41 1529122.81 935156.20 603433.91 452364.78 399274.89 419679.90 539404.65 795648.74 1175212.45 1489337.42 1399581.27 1002061.43 627649.36 385368.32 255713.99 189103.26 149327.58 122504.89 103030.93 87746.28 75926.89 67039.09 60342.73 55204.49 51183.66 48018.20 45677.03 43955.95 42838.02 41940.83 40598.22 38900.01 37426.25 36371.08 35690.41 35287.94 35090.05 35059.16 35175.42 35473.25 35870.04 36406.64 37086.53 37915.70 38902.62 40058.46 41397.35 42936.75 44698.03 46707.17 48995.69 51601.85 54572.22 57963.72 61846.32 66306.66 71452.84 77420.96 84384.28 92565.85 102256.62 113841.74 127839.31 144959.34 166195.14 192968.94 227373.21 272597.14 333817.23 420648.53 554856.94 790709.67 1247958.11 2118528.21 3563879.11 5410138.42 6565722.57 5762363.79 3952978.58 2427452.05 1490896.20 1019913.27 828382.54 812396.22 974084.00 1386514.28 2106159.24 2987697.24 3398738.21 2830759.79 1894746.48 1152863.45 701219.21 460982.79 335189.20 262480.28 214793.39 180837.18 155676.66 136760.52 122619.61 112240.88 104432.21 97280.50 89949.96 83650.96 79119.39 76392.54 75356.65 76023.43 78668.01 83949.73 93229.35 109591.10 140353.41 200616.76 313341.56 494446.35 710176.90 811645.12 681690.71 464773.15 293261.59 190609.40 139444.72 118684.43 117593.28 137389.67 187091.50 273476.24 379452.36 430123.20 363206.35 250051.03 159212.70 103222.13 73061.05 57136.51 47947.84 42039.32 38074.54 35504.31 33908.45 32534.40 30563.49 28346.27 26506.24 25175.55 24262.46 23640.83 23220.99 22955.53 22701.62 22690.90 22797.91 23022.56 23368.21 23841.54 24452.68 25215.61 26148.82 27288.47 28640.87 30197.42 32129.58 34442.61 37222.65 40583.81 44679.57 49719.81 55997.19 63928.99 74126.25 87512.21 105572.23 131017.55 169780.43 236344.78 362611.86 601289.36 1002664.36 1540709.78 1953981.79 1825297.04 1310643.99 826270.59 508907.73 338765.40 261390.99 238000.11 258353.14 336324.66 495695.29 738583.85 976734.40 992617.63 758539.43 491688.33 300632.02 188861.92 129391.56 97094.90 77474.47 64105.54 54325.79 46880.50 41058.27 36407.28 32624.68 29500.61 26885.87 24731.50 22838.16 21204.15 19826.21 18581.15 17483.53 16510.41 15768.99 14993.58 14296.69 13668.02 13099.01 12582.46 12112.26 11683.24 11290.96 10931.62 10601.93 10298.83 10020.29 9763.94 9590.82 9373.84 9174.07 8990.24 8821.22 8666.05 8523.85 8393.78 8275.39 8168.00 8071.14 7984.41 7907.46 7840.04 7781.96 7733.09 7693.40 7663.60 7642.46 7630.88 7629.22 7637.95 7657.73 7731.86 7776.92 7836.69 7913.31 8009.67 8129.82 8279.27 8467.21 8704.37 9010.67 9422.32 10017.74 10983.50 12716.69 15850.95 20989.65 27742.68 32965.65 31651.71 25590.51 19814.77 16055.50 14122.50 13373.71 13318.89 13786.24 14889.74 16915.05 20054.50 23808.13 26028.27 24872.64 22346.70 20570.64 20084.98 20889.29 23096.78 27084.09 33272.21 40852.95 46041.92 44860.83 40580.84 37511.80 36803.33 38202.29 41225.37 45633.93 51537.38 59446.79 70104.73 84365.18 102716.37 124840.53 153115.10 198188.24 280895.11 437576.30 716177.07 1141842.63 1638709.27 1907739.57 1657287.08 1155188.93 729120.62 458416.77 313827.80 247103.44 226164.91 242420.25 306713.53 439474.89 648155.48 883976.35 983495.86 825171.01 566185.96 355338.70 221619.28 147041.28 106642.94 83093.41 67690.20 56691.24 48363.17 41965.29 36895.58 32763.31 29404.88 26610.98 24258.63 22257.12 20538.29 19050.11 17752.23 16579.18 15573.49 14680.95 13885.12 13172.54 12532.06 11997.28 11474.96 11001.21 10570.53 10178.19 9820.19 9493.11 9194.00 8920.36 8670.07 8441.35 8232.71 8043.01 7871.41 7717.40 7602.27 7483.78 7384.35 7305.97 7252.22 7229.18 7247.98 7332.24 7537.49 7986.50 8895.36 10516.89 12911.36 15379.65 15956.95 13945.71 11286.43 9250.73 8005.81 7343.88 7028.32 6920.48 7035.44 7355.54 8034.93 9129.44 10392.82 10931.70 10111.52 8763.74 7661.44 6960.66 6572.88 6370.25 6261.82 6200.84 6113.42 6097.57 6115.56 6123.18 6139.19 6162.33 6191.15 6226.19 6266.45 6311.63 6361.53 6416.00 6448.32 6511.90 6579.95 6652.51 6729.63 6811.41 6897.64 6989.05 7085.49 7187.11 7294.02 7406.60 7524.99 7649.43 7780.19 7917.57 8061.88 8213.48 8372.74 8540.06 8715.89 8900.72 9095.01 9299.43 9514.55 9741.05 9979.65 10231.15 10496.44 10776.46 11072.26 11385.00 11715.93 12066.46 12438.11 12832.60 13251.80 13697.80 14172.95 14679.85 15221.41 15800.90 16422.03 17088.94 17806.37 18579.68 19415.01 20319.40 21300.94 22369.01 23534.48 24810.09 26210.76 27754.15 29461.26 31357.22 33472.34 35843.48 38515.81 41545.28 45001.79 48973.75 53574.29 58950.14 65294.42 72865.55 82015.60 93234.20 107218.07 124987.39 148102.67 179165.55 223206.27 291272.76 408450.42 621416.30 994346.80 1571232.20 2275679.96 2723800.91 2469595.80 1796557.72 1179784.78 766244.38 533425.27 418900.69 372779.30 371771.99 417226.05 529983.93 740004.17 1059559.90 1419422.91 1588328.86 1425958.40 1170746.62 1058384.83 1191615.72 1608772.12 2259727.99 2850709.83 2828839.55 2191640.87 1477546.64 953211.38 635763.32 465844.44 383087.12 352164.83 364388.77 432998.99 586176.20 848552.54 1196269.64 1462668.60 1386656.34 1041413.00 691978.22 443095.95 292377.47 207796.78 159531.86 129410.80 108624.05 93302.78 81580.10 72418.01 65194.51 59572.39 55463.43 52975.79 52219.48 52872.52 53159.37 50270.97 44730.00 39324.60 35174.76 32287.58 30335.46 29025.14 28232.52 28045.67 28807.28 31097.29 35480.67 41781.28 47413.07 47094.12 40532.73 32979.86 27244.30 23584.93 21449.10 20214.41 19502.75 19168.68 19251.71 19923.66 21385.73 23624.29 25839.21 26094.04 23887.87 21108.26 18950.54 17579.08 16801.26 16382.52 16160.01 16048.98 16011.50 16030.68 16098.27 16210.04 16364.10 16560.16 16799.23 17083.62 17416.13 17801.28 18244.62 18753.22 19335.89 20003.68 20770.48 21653.83 22638.72 23828.80 25224.10 26874.29 28846.16 31231.14 34157.07 37806.97 42451.64 48514.81 56736.96 68619.78 87481.40 120174.67 178271.23 275170.53 415524.02 568391.87 633362.81 544050.48 391137.81 262199.75 177843.01 130483.85 106952.00 97393.69 97428.35 107458.37 131584.04 175523.40 241103.05 317001.61 365746.23 340116.91 263899.69 190849.73 140460.50 111498.93 97310.48 92019.39 92383.25 97316.81 106633.02 119422.66 131957.03 139174.33 142753.94 148699.57 160406.12 179177.19 206115.06 243274.63 294872.22 369865.77 488174.32 691777.52 1054194.76 1668641.51 2589039.46 3678427.87 4344486.74 3941820.58 2895036.20 1915252.24 1236529.24 835186.13 621574.07 517375.81 479178.17 496416.88 585480.15 783734.38 1131715.97 1626855.67 2113818.77 2212629.54 1804557.42 1255217.43 816470.98 530614.34 363268.06 268120.50 211142.55 173673.18 146965.43 126952.44 111503.11 99333.16 89598.13 81717.55 75281.47 69994.43 65640.12 62058.27 59129.30 56763.98 54896.37 53478.97 52479.07 51878.53 51669.93 51858.10 52460.23 53507.19 55045.92 57143.18 59891.12 63415.48 67887.74 73543.32 80709.28 89847.25 101624.55 117036.94 137671.48 166372.21 208981.91 278130.36 398686.11 609784.61 953218.53 1435779.21 1935995.25 2111597.73 1783847.99 1267482.95 835604.41 549732.22 384294.34 296177.34 252671.18 237499.81 248061.21 293152.38 390631.10 559318.17 797182.14 1030662.62 1081066.38 889233.49 625577.16 412198.84 271422.51 187838.26 139506.67 110104.92 90668.28 76790.81 66378.46 58312.93 51915.48 46741.88 42489.71 38946.68 35999.45 33455.84 31269.83 29377.66 27710.52 26264.43 24989.99 23861.84 22859.42 21965.86 21167.26 20452.06 19810.59 19234.69 18717.50 18253.16 17836.70 17463.85 17130.97 16834.94 16573.08 16343.08 16143.00 15971.16 15826.18 15706.87 15612.29 15541.68 15494.47 15470.24 15468.76 15489.93 15533.83 15600.69 15690.89 15804.99 15943.71 16107.95 16298.82 16517.63 16765.95 17045.59 17358.66 17707.62 18095.27 18524.89 19000.24 19525.67 20106.21 20747.70 21456.93 22241.82 23111.66 24077.37 25151.88 26350.53 27691.71 29197.51 30894.74 32816.12 35001.96 37502.43 40380.21 43715.12 47609.54 52196.64 57651.90 64211.20 72195.69 82052.58 94419.29 110235.84 130976.07 159216.74 200090.91 264444.00 373578.17 561887.74 869255.94 1313305.47 1818919.58 2107536.21 1908249.59 1421722.82 961714.68 635375.42 435781.95 324961.14 267403.79 241164.26 237590.34 258622.27 315469.35 426128.21 606367.26 846760.19 1060447.88 1075915.29 873190.54 620311.53 419835.12 287508.10 208503.86 163244.60 136806.18 120575.00 110334.46 104118.92 100981.05 100469.02 102435.72 106979.96 114449.46 125491.87 141182.38 163346.06 195479.27 245216.52 328508.80 473179.25 716436.71 1087989.89 1564996.69 1971519.80 1985195.79 1593892.32 1118179.77 744442.35 500468.31 358166.31 280858.51 241429.56 225852.10 230875.02 262119.26 333135.76 461523.68 657025.86 891886.39 1047245.44 978178.77 748818.82 515841.56 343220.44 232574.12 166746.82 127813.55 103396.86 86735.22 74550.64 65237.74 57917.11 52043.92 47253.23 43289.96 39971.02 37162.13 34762.97 32697.33 30906.44 29344.43 27974.82 26768.57 25702.18 24756.45 23915.59 23166.52 22498.30 21901.75 21369.09 20893.74 20470.07 20093.24 19731.66 19436.83 19187.88 18962.44 18768.00 18602.54 18464.31 18351.82 18263.70 18198.84 18156.26 18135.16 18134.84 18154.72 18193.31 18238.67 18316.91 18361.27 18477.58 18612.75 18766.87 18945.02 19137.61 19349.84 19582.12 19834.92 20108.79 20404.37 20720.91 21062.22 21427.73 21792.06 22209.27 22654.11 23127.98 23632.42 24169.11 24739.94 25370.87 26016.39 26647.26 27377.59 28154.59 28981.10 29861.77 30605.40 31607.27 32676.34 33818.19 35038.99 36345.64 37745.90 39248.41 40862.95 42572.76 44445.93 46468.71 48657.22 51041.81 53619.72 56330.10 59395.93 62752.61 66437.61 70496.24 74981.58 79956.67 85496.94 91693.26 98655.91 106541.43 115473.37 125680.98 137426.00 151042.04 166959.72 185768.21 208165.74 235190.90 268240.61 309288.35 361225.81 428578.87 519229.64 648531.81 847484.86 1173843.23 1716915.86 2578336.37 3806735.61 5233098.94 6188588.51 5894000.04 4714376.71 3548060.08 2807554.02 2540435.74 2625113.57 2779832.00 2648116.24 2221863.51 1784489.43 1508878.88 1451033.28 1634391.33 2070877.63 2726422.12 3404840.94 3684577.48 3432742.71 3073315.01 2918597.10 2911456.41 2808340.50 2555516.02 2206771.38 1754143.47 1299716.78 945508.85 705214.26 554317.16 464753.72 416292.89 399431.24 414873.33 471083.41 579057.26 741417.49 927251.54 1041255.15 1013742.55 931471.27 898956.65 922507.99 914457.25 794396.04 614178.51 453479.40 338131.75 263089.54 214349.55 181225.62 158920.74 145064.14 138784.50 141009.03 154755.96 184749.46 235276.03 304612.31 371909.74 389563.81 337612.23 258610.79 190194.93 142158.78 111147.83 90528.91 75885.64 65247.25 57397.58 51483.16 46914.59 43280.07 40306.57 37801.82 35656.13 33792.93 32158.91 30715.57 29434.71 28296.00 27285.87 26397.82 25635.48 25020.30 24604.98 24486.41 24799.55 25666.95 27064.01 28494.18 28731.26 27094.11 24605.15 22338.94 20618.50 19408.59 18570.39 17971.22 17521.81 17176.83 16924.31 16779.79 16786.03 17007.78 17506.58 18275.75 19083.11 19326.90 18630.61 17479.13 16424.81 15646.38 15129.84 14806.85 14610.32 14493.87 14431.78 14411.80 14428.71 14480.73 14567.96 14691.84 14854.88 15060.68 15313.98 15620.87 15989.02 16428.04 16950.03 17570.27 18308.22 19188.87 20244.68 21518.40 23067.10 24968.22 27328.97 30301.49 34110.87 39115.18 45947.55 55739.15 71080.18 96142.22 137225.69 201203.20 291074.48 394644.52 465466.49 446315.27 355413.42 255101.35 176489.41 123687.98 91417.85 72818.84 62513.00 57279.22 55860.55 58195.72 65426.85 79799.65 104429.62 142041.46 190802.99 235322.98 244429.61 208696.41 156622.69 111573.10 79805.00 60000.49 48879.08 43312.42 40737.95 38656.85 35269.81 31060.94 27227.01 24131.13 21731.04 19954.07 18676.25 17761.12 17106.96 16653.55 16378.10 16202.18 16360.23 16831.29 17669.28 18812.02 19864.63 20061.24 19191.23 17954.49 16914.37 16218.15 15829.40 15664.20 15645.33 15720.21 15812.97 16001.65 16232.41 16501.69 16807.81 17150.56 17529.62 17946.19 18401.73 18898.17 19437.92 20023.85 20659.33 21348.28 22095.16 22905.12 23784.04 24738.64 25776.63 26906.81 28139.35 29485.92 30960.06 32577.45 34356.37 36318.26 38488.30 40896.45 43577.83 46575.04 49939.17 53732.25 58030.13 62926.32 68537.23 75009.12 82527.83 91332.20 101733.16 114141.36 129107.53 147383.67 170019.80 198532.15 235241.39 284039.40 352124.44 453389.05 613314.65 872527.38 1282699.86 1886858.78 2668958.16 3435121.74 3732210.47 3304519.71 2513742.24 1771889.37 1221967.18 860157.62 638223.27 506792.43 430852.88 390376.22 376805.52 390335.14 439497.71 541705.08 721073.14 999162.24 1371590.17 1752037.19 1921167.93 1726715.42 1328883.22 943224.63 651316.88 454807.07 330064.73 251527.94 200381.24 165098.22 139328.66 119687.00 104268.38 91897.52 81794.97 73420.99 66390.68 60422.75 55307.11 50883.92 47029.75 43647.91 40661.79 38009.98 35642.80 33519.64 31607.03 29877.21 28306.92 26876.60 25569.66 24372.04 23271.46 22257.57 21321.33 20454.88 19651.37 18904.79 18209.85 17561.89 16956.77 16390.83 15860.80 15363.76 14897.10 14458.48 14045.81 13696.93 13330.78 12985.45 12659.58 12351.91 12061.36 11786.93 11527.77 11283.13 11052.38 10835.02 10630.69 10439.19 10260.54 10095.00 9943.19 9806.27 9406.96 9308.98 9264.28 9233.53 9267.12 9405.35 9703.46 10237.00 10890.50 11748.98 12308.54 12073.53 11170.34 10139.14 9284.53 8664.93 8244.06 7824.66 7635.45 7502.67 7408.30 7345.72 7317.15 7260.65 7343.32 7473.15 7779.63 8184.77 8604.76 8792.73 8562.03 8077.22 7592.74 7215.53 6954.61 6786.20 6681.43 6617.33 6579.41 6560.07 6519.58 6530.21 6556.14 6599.80 6665.83 6762.74 6906.93 7098.05 7452.84 8020.39 8895.90 10148.10 11716.72 13183.18 13684.35 12812.89 11271.92 9821.73 8755.73 8031.95 7588.58 7333.51 7196.09 7133.17 7108.14 7147.26 7243.07 7418.35 7710.82 8166.09 8818.54 9637.49 10414.76 10719.09 10348.60 9658.52 9037.55 8637.27 8484.44 8573.85 8898.77 9443.74 10132.56 10730.03 10832.47 10393.26 9765.23 9225.63 8854.17 8638.71 8540.76 8522.05 8554.59 8621.84 8716.14 8836.17 8986.19 9176.64 9424.16 9748.13 10163.09 10653.46 11125.71 11394.07 11379.30 11235.93 11125.43 11105.66 11177.78 11325.20 11529.61 11777.35 12060.67 12376.60 12725.22 13108.61 13530.12 13995.28 14511.00 15087.65 15741.13 16496.22 17389.56 18469.10 19785.52 21368.93 23170.48 24975.02 26464.22 27723.59 29168.52 31122.23 33768.72 37270.93 41863.66 47959.24 56332.45 68443.15 86876.37 115666.61 160011.65 224752.53 310514.68 404291.13 466328.33 452036.11 374078.42 282129.17 205281.19 150045.16 113756.76 91289.75 77869.24 70090.53 65979.74 64622.85 65873.11 70274.19 79144.56 94601.03 119202.67 154853.85 200099.44 244158.92 263159.80 242367.57 198775.39 155480.57 122176.75 99815.65 86344.67 79182.42 76219.94 76107.74 78159.88 82150.88 88166.66 96559.90 108024.56 123845.53 146418.38 180169.23 232484.51 314079.23 437384.47 611466.36 829523.38 1040806.23 1133615.25 1036455.94 826111.62 612663.07 444302.34 326780.93 250807.73 204079.30 176180.73 160106.35 151945.00 150015.87 154276.95 166245.11 189228.31 228343.00 289605.09 377268.21 487331.13 593188.86 638361.71 589713.96 488100.53 388023.65 312792.71 265184.93 240636.69 232671.16 235385.22 246433.24 268705.02 308633.00 375160.23 479121.42 630011.20 828157.74 1044874.67 1198177.60 1204081.18 1100387.83 1001153.66 979829.60 1058631.47 1221220.72 1396008.61 1453495.11 1327969.93 1107107.70 898964.45 748839.14 664550.10 643297.16 684252.85 795358.18 995317.57 1308834.02 1750633.87 2293625.01 2837481.89 3198894.56 3166932.97 2763089.19 2259020.95 1854614.07 1587276.49 1393305.81 1195421.11 990570.52 816471.57 690974.57 613160.48 577011.82 578025.94 616776.41 701588.38 850167.60 1089072.16 1448362.47 1944480.61 2539640.64 3105648.51 3494948.21 3593933.44 3289626.46 2675448.01 2015766.27 1472681.24 1079132.40 813628.47 641850.19 532667.75 463472.68 420086.35 395386.07 386167.79 392797.28 419068.33 472744.98 565480.56 710725.02 917878.36 1178132.81 1433679.70 1562510.20 1491553.30 1313343.00 1164732.97 1121188.16 1211893.80 1440714.14 1776591.11 2110296.96 2235750.00 2031665.30 1631195.01 1224475.02 897805.09 663359.06 505955.66 404218.69 339285.87 297831.11 271896.19 257507.66 253486.21 261020.73 283929.70 329068.28 405960.49 524572.87 689670.98 887112.56 1057520.19 1099170.79 976541.58 773818.66 579096.13 426665.26 318969.98 247503.35 201784.46 173096.85 155718.43 146789.77 145708.53 153494.65 172080.01 203204.51 246197.28 292970.37 322113.48 310920.19 265170.48 210290.37 162698.50 126822.97 101730.35 84892.38 73737.57 66275.02 61216.61 57848.61 55881.84 55258.73 56282.76 59581.15 66156.21 77268.90 94041.55 116502.85 141312.00 158582.84 156278.96 135383.07 108390.88 84348.95 65993.93 53046.16 44282.13 38392.15 34329.46 31390.89 29155.42 27384.33 25940.71 24740.92 23729.77 22868.59 22129.21 21490.63 20936.97 20456.03 20049.78 19687.94 19376.58 19111.03 18887.84 18704.40 18558.80 18449.71 18376.32 18338.32 18335.81 18369.37 18439.97 18549.07 18698.56 18890.88 19129.04 19416.69 19758.22 20158.90 20624.91 21163.96 21784.92 22498.53 23317.68 24257.97 25338.34 26581.93 28017.19 29679.44 31612.87 33873.28 36531.94 39680.85 43440.43 47970.65 53488.41 60296.98 68841.67 79822.60 94418.96 114687.36 144133.75 188265.75 254652.52 351829.27 486191.78 654570.49 827444.22 932623.52 900554.91 755328.78 579661.90 426632.78 311199.48 230918.65 177963.30 144127.27 122887.20 109891.39 102594.47 99623.64 100281.74 104641.80 114258.68 132279.44 162792.48 210018.99 276702.95 359825.46 441733.17 483865.59 455875.26 376855.69 287914.61 212324.05 155701.54 116147.96 89570.32 71890.17 59930.94 51572.14 45518.06 40947.01 37216.42 33824.61 30626.06 27745.95 25274.17 23199.46 21465.68 20008.61 18770.12 17703.24 16772.61 15952.51 15224.20 14573.61 13989.81 13464.08 13007.64 12578.11 12189.11 11836.68 11517.66 11246.65 10987.65 10756.43 10552.34 10375.65 10226.78 10107.90 10022.49 9976.42 9979.77 10050.29 10219.22 10539.14 11090.37 11980.11 13324.90 15205.27 17557.70 19938.41 21321.97 20760.45 18599.50 15988.41 13682.61 11907.85 10639.31 9771.67 9189.48 8798.01 8531.75 8351.23 8235.90 8186.87 8190.40 8269.99 8454.88 8789.79 9330.56 10128.86 11197.82 12428.49 13450.31 13687.31 12926.34 11674.52 10428.11 9415.32 8670.57 8154.18 7807.56 7576.48 7419.97 7311.00 7233.29 7177.35 7137.53 7110.28 7093.21 7084.61 7083.25 7088.18 7098.71 7114.30 7123.58 7148.20 7176.92 7209.56 7245.97 7286.07 7329.79 7377.10 7427.98 7482.44 7540.51 7602.23 7667.67 7736.88 7809.98 7887.05 7968.21 8053.61 8143.39 8237.72 8336.78 8440.79 8549.98 8664.59 8784.91 8940.27 9073.08 9212.68 9359.52 9460.94 9624.19 9796.51 9978.72 10171.82 10376.99 10595.71 10829.84 11081.78 11354.77 11653.48 11985.03 12361.03 12800.61 13334.12 14005.67 14871.28 15989.00 17394.57 19044.20 20668.74 21797.51 21945.48 21295.31 20423.04 19719.32 19311.21 19195.62 19325.33 19646.00 20111.99 20705.57 21381.56 22146.13 22999.22 23946.66 25000.08 26178.15 27507.91 29024.89 30769.81 32731.78 35042.33 37547.11 40073.17 42369.59 44438.34 46578.73 49082.05 52107.60 55683.54 59994.24 65067.57 71019.60 78014.02 86275.88 96111.73 107941.86 122358.07 140257.09 162965.31 192742.74 233417.24 291065.54 374771.21 496506.16 669364.70 903821.18 1197094.67 1511482.05 1746192.48 1773983.67 1578262.08 1275744.01 979744.47 739158.39 561593.91 438549.90 357190.06 305351.11 273694.76 256041.68 248882.12 250691.08 261489.40 282837.91 318219.76 374063.27 460048.91 589297.05 776580.48 1033622.41 1359010.72 1713888.91 1991896.18 2050529.74 1851674.98 1510513.73 1160729.29 868219.05 647095.32 489547.72 381211.31 307770.26 257719.51 223027.74 198651.35 181675.82 170599.13 164802.35 164549.85 170973.34 186186.11 213563.30 257015.10 320224.26 404273.83 502286.69 589984.87 625454.48 584202.77 490656.08 386609.16 296196.22 226041.48 175095.82 139374.37 114655.76 97374.98 84941.83 75663.54 68503.45 62838.64 58284.99 54592.67 51589.94 49154.00 47195.18 45647.82 44464.52 43612.58 43071.87 42833.55 42899.20 43279.78 43943.31 45025.12 46469.04 48283.07 50439.96 52952.87 55954.25 59657.35 64289.87 70104.61 77432.66 86760.47 98856.31 114983.11 137215.95 168817.40 214506.53 280336.87 372837.05 496900.95 650965.09 816361.27 943782.95 968533.62 875242.33 717895.35 556826.56 421461.70 318322.98 244201.83 192888.81 158081.12 134604.73 118760.69 108185.17 101517.27 98090.73 97754.61 100840.65 108250.58 121596.72 143277.77 176326.84 223839.23 287695.71 365527.74 444554.76 496265.95 491125.39 431533.26 348655.98 269209.44 204235.81 155259.32 120071.24 95429.71 78234.71 66021.67 57060.87 50239.42 44874.34 40547.85 36995.07 34038.36 31552.06 29443.62 27643.06 26096.56 24762.18 23606.87 22604.45 21733.94 20978.52 20324.62 19761.31 19279.81 18873.11 18535.73 18263.47 18053.32 17903.29 17812.42 17780.69 17809.09 17899.63 18055.44 18280.90 18581.85 18965.80 19442.35 20023.57 20724.66 21564.77 22568.11 23765.41 25196.09 26911.12 28977.49 31485.15 34558.98 38380.81 43229.70 49551.96 58068.61 69910.29 86734.38 110736.57 144443.81 190146.09 248627.85 316282.29 379924.53 415054.59 402139.46 349072.88 281349.19 218103.23 166782.49 128189.31 100536.05 81325.33 68183.02 59215.96 53091.70 48916.77 46292.68 44930.30 44770.75 45927.44 48716.20 53707.44 61764.04 74012.05 91683.36 115742.07 146048.49 179513.47 207452.43 216979.81 202145.30 171218.85 136854.62 106526.52 82541.88 64704.01 51922.26 42902.46 36557.80 31995.42 28614.46 26029.00 23999.95 22378.80 21070.22 20010.21 19154.43 18472.22 17943.73 17559.34 17320.83 17243.96 17361.63 17725.97 18404.58 19470.01 20974.64 22895.20 25013.66 26760.00 27329.20 26376.94 24431.16 22281.54 20400.89 18941.26 17895.73 17199.08 16773.11 16547.08 16466.16 16492.62 16602.96 16784.26 17030.99 17343.32 17726.90 18194.03 18765.09 19470.28 20349.34 21448.17 22810.13 24456.10 26338.21 28262.18 29883.74 30985.80 31787.79 32740.41 34132.63 35939.80 37782.12 39035.03 39340.07 39003.09 38617.26 38582.58 39056.42 40073.84 41633.87 43746.49 46452.87 49840.86 54044.66 59229.47 65554.56 73094.47 81666.72 90549.92 98450.10 104451.50 109212.30 114439.87 121604.43 131624.19 145164.85 162942.12 185953.23 215762.31 255040.96 308375.52 382784.44 487536.63 633311.54 830325.72 1084248.14 1387001.09 1698452.02 1928976.31 1972407.10 1805333.54 1514870.48 1205549.82 935310.45 721497.36 561681.75 446040.66 363488.23 304741.54 262982.54 233406.21 212780.21 199087.75 191211.29 188729.63 191870.05 201605.73 219850.33 249652.71 295233.25 361663.94 453957.71 575091.22 721615.42 874787.69 991285.19 1017134.76 936616.81 790740.40 632597.79 492781.13 380983.80 296592.19 235156.88 191332.34 160223.56 137958.66 121792.18 109948.84 101384.92 95579.02 92390.32 91969.05 94680.15 100998.34 111325.86 125627.99 142657.29 158689.90 167237.34 162935.10 147094.15 126145.02 105685.17 88320.30 74635.38 64322.17 56766.86 51316.07 47400.27 44581.58 42554.58 41122.71 40169.06 39632.61 39494.60 39775.15 40538.85 41906.26 44065.97 47278.37 51859.99 58135.57 66333.28 76353.81 87289.37 96809.79 101578.16 99897.20 93634.48 86131.18 79587.23 74766.80 71777.78 70615.53 71258.26 73657.38 77796.04 83765.48 91831.98 102516.89 116718.01 135881.35 162198.00 198751.70 249496.38 318918.18 411194.69 528405.16 666617.00 808391.86 915842.91 943175.13 876278.96 748524.89 605934.85 477055.40 372156.74 291772.95 232514.70 189845.85 159436.09 137785.98 122340.47 111354.78 103708.97 98736.66 96097.58 95710.56 97748.17 102683.71 111371.24 125121.92 145718.48 175296.43 216008.41 269307.12 334389.02 404988.36 465197.40 491606.64 470432.74 412257.39 340604.83 272701.04 215799.28 171103.90 137349.21 112504.24 94454.17 81328.71 71657.82 64386.07 58801.16 54437.57 50991.90 48262.38 46110.63 44438.91 43176.87 42273.75 41693.52 41411.93 41414.65 41696.31 42260.01 43073.41 44245.12 45760.25 47657.11 49924.27 52730.62 56069.81 59986.48 64534.17 69837.29 76146.89 83833.36 93385.76 105486.55 121151.39 141909.14 169989.45 208450.46 261143.41 332390.48 426211.94 544707.96 684575.05 830420.93 947791.05 991467.63 940190.43 819066.14 673449.98 536047.48 420759.61 330177.76 261935.75 211956.89 175964.36 150203.52 131734.23 118450.62 108950.88 102361.13 98181.00 96181.31 96359.64 98948.81 104468.08 113798.54 128249.00 149561.48 179795.22 221016.54 274649.67 340090.94 411872.16 475736.78 509352.26 496377.28 442753.84 370296.88 298144.03 235763.71 185724.26 147341.67 118711.85 97657.28 82177.73 70649.92 61869.95 55002.83 49493.11 44976.90 41212.74 38035.00 35325.26 32995.53 30978.44 29221.33 27682.41 26328.15 25131.35 24069.83 23125.30 22282.62 21529.14 20854.28 20249.09 19705.98 19218.50 18781.11 18340.86 17990.34 17677.59 17399.53 17153.59 16937.47 16749.17 16586.99 16449.46 16335.31 16243.46 16172.98 16123.12 16093.24 16082.84 16091.53 16119.04 16165.22 16229.98 16313.38 16415.55 16536.73 16677.26 16837.59 16994.09 17195.93 17419.62 17666.11 17936.50 18232.06 18554.25 18904.76 19285.54 19698.80 20147.16 20633.62 21161.74 21735.75 22360.81 23043.41 23791.98 24617.80 25536.34 26568.81 27743.51 29096.58 30671.02 32513.25 34665.60 37150.68 39938.64 42888.40 45695.03 47972.80 49548.90 50655.43 51726.95 53113.00 55004.33 57489.25 60613.88 64416.76 68947.68 74279.51 80517.81 87810.38 96359.49 106440.78 118435.12 132882.92 150573.11 172679.01 200944.69 237902.77 287069.51 353021.95 441236.55 557550.01 707018.33 891594.41 1105295.02 1325537.11 1504932.60 1581897.82 1522997.55 1354960.55 1138652.41 924472.16 737805.28 586178.43 468321.52 379435.96 313741.98 265724.73 230734.69 205190.99 186530.88 173029.50 163589.79 157565.05 154640.02 154774.50 158203.77 165466.26 177567.31 195939.50 222566.13 259897.98 310642.50 377358.81 461631.44 562167.53 670987.88 768571.16 824844.35 815994.65 745885.79 642210.09 533369.95 435833.17 355619.79 293144.49 246445.97 212794.61 189476.60 174192.80 165242.60 161576.61 162785.68 169067.54 181255.67 200742.50 229463.30 269730.74 323914.00 393823.96 479477.76 576617.25 672744.89 744736.48 766526.61 728351.25 646015.59 546397.47 449971.33 366527.26 298554.66 244965.02 203416.01 171523.94 147242.50 128850.12 114933.19 104400.49 96464.29 90586.54 86419.36 83759.68 82525.05 82750.44 84603.81 88416.67 94721.65 104282.63 118096.57 137341.74 163243.44 196803.76 238256.42 285955.45 334484.20 373106.16 388486.13 373811.05 335135.43 285695.86 236546.41 193365.96 157849.53 129645.79 107615.56 90524.79 77308.37 67078.71 59101.15 52795.11 47727.40 43587.06 40153.66 37269.59 34820.01 32719.42 30903.06 29321.14 27934.85 26713.61 25632.61 24672.76 23817.53 23053.57 22369.76 21756.79 21206.80 20713.14 20270.15 19873.00 19517.54 19200.21 18917.41 18667.57 18447.86 18256.32 18091.25 17951.18 17834.88 17741.29 17669.51 17618.80 17588.57 17578.34 17587.76 17616.58 17664.69 17732.04 17818.70 17924.86 18050.77 18196.81 18363.47 18550.00 18759.74 18992.18 19248.26 19529.07 19835.82 20169.65 20532.64 20926.29 21352.58 21813.70 22312.16 22850.72 23432.52 24061.06 24740.29 25474.66 26269.19 27129.55 28062.19 29074.42 30174.58 31372.22 32578.19 34005.66 35568.70 37284.18 39171.15 41253.91 43558.88 46118.04 48969.40 52158.35 55739.50 59778.97 64357.45 69574.49 75554.48 82455.69 90484.44 99917.38 111136.99 124685.24 141340.38 162215.62 188869.82 223404.30 268506.19 327387.00 403560.03 500326.36 620081.45 762244.48 920068.94 1075514.61 1196356.17 1245315.56 1204000.98 1088532.98 935735.68 778728.36 636569.04 516652.78 419836.92 343973.67 285771.11 241731.07 208637.26 183792.67 165092.09 150986.42 140390.66 132576.90 127079.83 123627.15 122098.28 122509.82 125024.49 129980.75 137936.78 149718.34 166452.75 189565.30 220704.10 261601.04 313712.36 377621.93 451801.63 530438.63 600979.48 644933.72 646606.08 605109.10 535128.10 455372.38 379083.61 312622.17 257811.50 214190.39 180323.84 154468.39 134914.00 120159.88 108989.29 100475.53 93946.78 88932.98 85112.20 82265.97 80246.26 78949.99 78318.11 78307.73 78900.43 80096.70 81915.32 84394.20 87592.64 91595.86 96522.31 102535.94 109865.36 118834.58 129905.32 143735.76 161249.82 183706.86 212751.94 250420.10 299064.00 361168.26 438982.45 533820.69 644698.35 765845.14 883284.27 973442.84 1010145.07 980800.69 896541.56 783216.32 664968.46 556486.92 464042.36 388913.58 329914.05 285007.66 251753.99 227887.47 211472.86 200991.37 195346.36 193822.13 196022.11 201812.23 211304.44 224929.74 243601.47 268844.15 302763.51 347908.24 407110.63 483263.50 578882.96 695199.47 830362.77 976487.63 1116708.77 1226701.11 1285347.92 1288054.16 1246276.80 1173221.02 1075035.07 956109.85 826102.80 698117.01 582450.17 483991.11 403387.57 339040.70 288504.99 249226.15 218879.78 195506.95 177546.65 163814.05 153448.83 145854.96 140641.31 137572.20 136538.39 137568.79 140894.71 147021.73 156733.81 171027.21 191026.54 217886.52 252629.10 295828.68 346989.77 403410.99 458617.27 501655.45 520081.16 507262.43 467490.70 412466.37 353683.37 298405.94 249944.83 209251.98 176094.42 149662.41 128899.88 112713.41 100102.29 90223.78 82410.63 76158.46 71098.16 66964.84 63569.68 60777.47 58490.40 56636.85 55163.96 54032.86 53215.51 52692.72 52452.68 52490.01 52804.97 53402.74 54292.26 55484.34 56988.60 58811.17 60958.40 63400.92 66291.80 69663.64 73612.61 78228.22 83583.54 89742.57 96802.89 104978.05 114672.73 126500.44 141273.73 160021.48 184031.48 214880.33 254416.29 304670.42 367667.74 445079.40 537575.02 643605.85 757331.60 866055.95 949589.47 985949.68 963625.41 889917.70 785514.17 671875.41 563605.89 467947.12 387306.37 321381.82 268666.35 227177.17 194858.57 169802.99 150368.83 135229.83 123375.11 114070.53 106800.13 101209.36 97062.00</intensities>
      </xrdElement>
    </scan>
  </xrdMeasurement>
</xrdMeasurements>
