<?xml version="1.0" encoding="UTF-8"?>
<xrdMeasurements xmlns="http://www.xpdd.org/xrdml/1.0">
  <xrdMeasurement count="1" measurementType="Scan" status="Completed">
    <sample id="sample-1"><name>PbSO4</name></sample>
    <scan count="1">
      <xrdElement id="elem-1">
        <commonParameters>
          <scanType>continuous</scanType>
          <tubeAnode>Fe</tubeAnode>
          <wavelengths>
            <kAlpha1>1.936</kAlpha1>
            <kAlpha2>1.9399</kAlpha2>
          </wavelengths>
          <tubeVoltage>45</tubeVoltage>
          <tubeCurrent>40</tubeCurrent>
          <goniometer>
            <thetaMin>15.0</thetaMin>
            <thetaMax>140.0</thetaMax>
            <stepSize>0.02</stepSize>
            <scanAxis>2Theta/Theta</scanAxis>
          </goniometer>
        </commonParameters>
        <dataType>ASCII</dataType>
        <intensities>0.75 0.75 0.75 0.75 0.75 0.74 0.74 0.74 0.74 0.74 0.74 0.73 0.73 0.73 0.73 0.73 0.73 0.72 0.72 0.72 0.72 0.72 0.71 0.71 0.71 0.71 0.71 0.71 0.70 0.70 0.70 0.70 0.70 0.70 0.69 0.69 0.69 0.69 0.69 0.68 0.68 0.68 0.68 0.68 0.68 0.67 0.67 0.67 0.67 0.67 0.67 0.66 0.66 0.66 0.66 0.66 0.66 0.65 0.65 0.65 0.65 0.65 0.65 0.64 0.64 0.64 0.64 0.64 0.63 0.63 0.63 0.63 0.63 0.63 0.62 0.62 0.62 0.62 0.62 0.62 0.61 0.61 0.61 0.61 0.61 0.61 0.60 0.60 0.60 0.60 0.60 0.60 0.59 0.59 0.59 0.59 0.59 0.59 0.58 0.58 0.58 13.04 13.17 13.30 13.44 13.58 13.73 13.87 14.02 14.17 14.32 14.48 14.63 14.79 14.96 15.13 15.29 15.47 15.64 15.82 16.00 16.19 16.38 16.57 16.77 16.97 17.17 17.38 17.59 17.80 18.02 18.25 18.47 18.71 18.94 19.19 19.43 19.68 19.94 20.20 20.47 20.74 21.02 21.31 21.60 21.90 22.20 22.51 22.83 23.15 23.48 23.82 24.16 24.52 24.88 25.25 25.63 26.01 26.41 26.82 27.23 27.66 28.09 28.54 29.00 29.47 29.95 30.44 30.95 31.46 32.00 32.54 33.10 33.68 34.27 34.87 35.49 36.13 36.79 37.47 38.16 38.88 39.61 40.37 41.15 41.95 42.78 43.63 44.51 45.41 46.35 47.31 48.30 49.33 50.39 51.48 52.61 53.78 54.98 56.23 57.53 58.86 60.25 61.69 63.17 64.72 66.32 67.98 69.70 71.50 73.36 75.30 77.31 79.41 81.60 83.87 86.25 88.73 91.31 94.01 96.84 99.79 102.88 106.12 109.52 113.08 116.82 120.74 124.87 129.22 133.80 138.62 143.72 149.10 154.79 160.81 167.19 173.96 181.15 188.79 196.93 205.61 214.88 224.79 235.41 246.79 259.02 272.18 286.38 301.72 318.32 336.33 355.92 377.27 400.61 426.17 454.27 485.23 519.47 557.47 599.80 647.13 700.28 760.26 828.28 905.84 994.81 1097.54 1217.00 1357.03 1522.63 1720.39 1959.17 2251.11 2613.13 3069.46 3655.65 4425.54 5463.73 6908.85 9001.18 12216.28 18039.71 33869.86 88634.25 233364.94 446451.89 511556.10 329207.60 140537.48 50771.58 22955.12 14330.19 10266.94 7752.46 6054.09 4854.02 3976.07 3315.13 2805.50 2404.48 2083.38 1822.35 1607.35 1428.18 1277.31 1149.10 1039.23 944.38 861.92 789.80 726.36 670.26 620.40 575.91 536.03 500.16 467.76 438.42 411.75 387.44 365.22 344.86 326.15 308.93 293.03 278.33 264.71 252.07 240.31 229.36 219.13 209.58 200.64 192.25 184.39 176.99 170.04 163.48 157.30 151.46 145.94 140.72 135.77 131.08 126.63 122.40 118.38 114.55 110.91 107.44 104.13 100.97 97.95 95.06 92.30 89.66 87.13 84.71 82.39 80.16 78.02 75.96 73.99 72.09 70.26 68.50 66.81 65.18 523.35 526.64 530.06 533.61 537.28 541.09 545.01 549.07 730.85 737.02 743.34 749.82 756.46 763.26 770.21 777.34 784.62 792.07 799.70 807.49 815.45 823.59 831.91 840.41 849.10 857.97 867.03 876.28 885.73 895.39 905.24 915.31 925.59 936.08 946.80 957.75 968.92 980.33 991.99 1003.89 1016.04 1028.46 1041.13 1054.08 1067.31 1080.82 1094.62 1108.73 1123.13 1137.86 1152.91 1168.28 1184.00 1200.07 1216.50 1233.30 1250.47 1268.04 1286.00 1304.38 1323.18 1342.42 1362.11 1382.26 1402.89 1424.01 1445.63 1467.78 1490.47 1513.71 1537.52 1561.92 1586.93 1612.58 1638.87 1665.83 1693.49 1721.87 1750.99 1780.88 1811.56 1843.06 1875.42 1908.66 1942.81 1977.91 2014.00 2051.10 2089.25 2128.51 2168.90 2210.48 2253.29 2297.37 2342.78 2389.58 2437.81 2487.54 2538.83 2591.75 2646.36 2702.74 2760.96 2821.10 2883.26 2947.51 3013.96 3082.71 3153.86 3227.53 3303.83 3382.90 3464.86 3549.86 3638.06 3729.61 3824.69 3923.48 4026.17 4132.98 4244.12 4359.84 4480.39 4606.03 4737.07 4873.82 5016.61 5165.81 5321.80 5485.00 5655.86 5834.88 6022.58 6219.54 6426.36 6643.72 6872.36 7113.07 7366.70 7634.22 7916.66 8215.13 8530.89 8865.30 9219.86 9596.23 9996.26 10421.94 10875.54 11359.57 11876.80 12430.39 13023.80 13660.97 14346.36 15084.94 16204.28 17070.37 18009.21 19029.25 20140.21 21353.30 22681.54 24140.09 25746.71 27522.30 29491.62 31684.15 34135.23 36887.53 39992.96 43515.09 47532.88 52144.55 57474.34 63681.22 70970.42 79611.58 89964.84 102518.48 117949.70 137218.76 161723.72 193563.18 236001.15 294331.67 377627.04 503546.47 724168.12 1277331.56 3050857.84 7643155.42 14707984.14 17783583.21 12318696.74 5802207.37 2433654.21 1491725.78 1890585.39 3635241.11 6235770.95 6922994.38 4535132.64 2092636.58 876865.77 461530.07 315571.89 240869.81 192164.08 157670.60 132179.81 112720.18 97475.78 85275.38 75338.19 67119.30 60235.58 54403.95 49416.42 45113.78 41373.64 38100.49 35217.94 32665.77 30394.74 28364.24 26541.50 24898.92 23413.26 22065.11 20838.17 19718.35 18693.47 17871.94 17008.71 16213.43 15479.30 14800.36 14171.39 13587.78 13045.44 12540.76 12070.51 11631.84 11222.16 10839.18 10480.83 10145.24 9830.76 9535.84 9259.13 8999.39 8755.46 8526.34 8311.09 8108.86 7918.87 7740.43 7572.86 7415.59 7268.09 7129.86 7000.44 6879.44 6766.45 6661.17 6563.27 6472.48 6388.53 6311.21 6240.31 6175.64 6117.05 6064.40 6017.57 5976.45 5940.97 5911.06 5886.68 5867.79 5854.39 5846.49 5844.10 5847.28 5856.09 5870.60 5890.91 5917.16 5949.49 5988.06 6033.06 6084.73 6143.30 6209.05 6282.30 6363.39 6625.85 6725.58 6834.47 6953.07 7081.95 7221.78 7373.28 7537.24 7714.58 7906.27 8113.43 8337.29 8579.23 8840.80 9123.72 9429.94 9761.64 10121.30 10511.71 10936.05 11397.93 11901.48 12451.44 13053.25 13713.18 14438.55 15237.84 16120.99 17099.69 18187.75 19401.63 20760.99 22289.51 24015.93 25975.40 28211.21 30777.25 33741.18 37188.92 41230.92 46010.93 51718.85 58609.60 67031.66 77471.21 90622.47 107503.39 129653.17 159483.52 200937.01 260844.77 352985.91 520577.95 955314.36 2303445.37 5564955.55 10206103.07 11695329.88 7796225.03 3591299.36 1424413.08 671050.91 418502.73 299796.44 226964.63 177798.66 143040.34 117605.22 98457.70 83697.58 72088.66 63294.22 55755.32 49553.91 44394.63 40059.34 36384.17 33244.16 30542.70 28204.17 26168.73 24388.56 22825.07 21446.90 20228.33 19148.18 18188.86 17335.71 16576.47 15900.83 15300.11 14767.01 14295.37 13880.01 13516.64 13201.67 12932.20 12705.90 12521.03 12376.32 12271.03 12204.89 12178.15 12191.55 12246.42 12344.68 12488.93 12682.57 12929.91 13236.35 13608.62 14055.05 14585.97 15214.22 15955.81 16830.87 17864.84 19090.24 20549.02 22295.99 24403.78 26970.12 30128.92 34067.40 39053.50 45481.00 53946.77 65388.67 81345.01 104499.86 140420.35 207332.25 384714.57 920159.28 2154456.20 3802117.04 4165429.33 2696224.41 1234926.80 501118.06 245722.38 157531.06 114910.59 88509.41 70626.11 57962.23 48691.16 41717.53 36353.33 32149.72 28804.28 26107.53 23910.83 22106.46 20614.97 19376.80 18346.73 17490.01 16779.68 16194.74 15718.71 15338.68 15044.59 14828.65 14685.02 14609.46 14599.14 14652.53 14769.31 14950.30 15197.53 15514.28 15905.17 16376.38 16935.84 17593.59 18362.21 19257.39 20298.72 21510.73 22711.09 24366.85 26313.37 28615.40 31357.68 34652.71 38652.24 43564.72 49682.44 57343.48 67330.85 80505.14 98355.54 123340.98 159813.84 217287.18 329121.26 635495.11 1531817.75 3451859.35 5731052.77 5797217.98 3550255.33 1589539.22 657482.88 336892.07 221251.02 162676.23 125751.50 100563.63 82645.37 69484.17 59561.68 51918.45 45925.30 41156.49 37315.96 34192.95 31634.31 29526.74 27785.13 26344.69 25155.49 24178.77 23384.13 22747.69 22250.60 21878.03 21618.38 21462.68 21404.21 21438.09 21561.14 21771.64 22069.26 22455.01 22931.18 23501.40 24170.72 24945.69 25834.56 26847.47 27996.76 29297.31 30767.08 32427.66 34305.05 36430.69 38842.76 41587.81 44723.05 48319.21 52464.56 57270.27 62877.75 69469.09 77851.97 87205.66 98517.42 112365.72 129559.15 151254.68 179152.53 215829.75 265335.74 334313.66 434390.63 590085.79 882466.45 1649300.66 3888984.20 8871773.72 15345173.54 16607710.49 10763724.91 5009055.60 2077476.16 1026538.82 653984.55 472817.02 360533.83 284359.95 230321.52 190687.44 160814.34 137781.31 119680.32 105224.38 93520.94 83936.02 76009.71 69402.27 63858.65 59184.70 55230.88 51880.82 49043.26 46646.19 44632.67 42957.64 41585.65 40489.18 39647.32 39044.94 38671.98 38523.14 38597.66 38899.28 39436.55 40223.14 41278.55 42629.10 44309.20 46363.25 48848.17 51836.81 55422.76 59726.95 64907.10 71171.16 78797.07 88162.12 99788.05 114411.47 133098.03 157433.07 189853.18 234249.45 297142.57 390543.74 544261.93 873218.94 1810262.77 4316580.80 8922513.75 13026003.37 11314998.83 6318967.36 2751019.70 1198499.12 664124.69 451718.39 335080.84 259255.74 206680.52 168769.72 140420.75 118895.05 102100.27 88749.62 77964.34 69128.34 61799.57 55654.41 50451.57 46008.28 42184.06 38869.54 35978.53 33442.41 31205.96 29224.39 27461.05 25885.70 24473.25 23202.71 22056.44 21019.51 20079.24 19224.79 18446.87 17737.45 17089.60 16497.31 15955.32 15459.06 15004.52 14588.16 14206.89 13857.97 13538.98 13247.81 12982.55 12741.54 12523.32 12326.57 12150.15 11993.06 11854.41 11733.45 11629.51 11542.04 11470.57 11414.71 11374.16 11348.70 11338.17 11342.49 11361.67 11395.75 11444.88 11509.27 11589.18 11684.97 11797.09 11926.05 12072.44 12236.99 12420.48 12623.82 12848.06 13094.35 13363.99 13658.46 13979.40 14328.64 14708.25 15120.53 15568.08 16053.80 16580.95 17153.22 17774.76 18652.15 19388.83 20190.84 21065.06 22019.34 23007.91 24151.06 25405.59 26785.37 28306.55 29987.98 31851.88 33924.44 36236.80 38826.20 41737.41 45024.68 48754.24 53007.59 57885.93 63516.12 70058.93 77720.42 86768.14 97554.38 110550.48 126398.16 145988.72 170588.19 202041.71 243119.18 298123.60 374017.23 482723.63 647842.20 938175.93 1627062.26 3582084.80 8204421.51 15239809.36 18971980.17 14077535.36 7229478.04 3115311.58 1460859.86 875203.64 614965.95 461685.62 359461.66 287589.32 235211.74 196158.82 165949.75 142240.91 123300.72 107935.68 95302.39 84791.46 75964.46 68463.99 62044.35 56507.77 51699.69 47497.91 43804.78 40541.51 37644.02 35059.71 32745.12 30664.05 28786.21 27086.05 25541.92 24055.64 22771.43 21595.43 20515.89 19522.63 18606.78 17760.60 16977.28 16250.83 15575.97 14948.02 14362.83 13816.68 13306.29 12828.68 12381.22 11961.50 11567.40 11196.95 10848.42 10520.21 10210.88 9919.11 9643.71 9383.58 9137.74 8905.26 8685.32 8477.15 8280.04 8093.36 7916.50 7748.92 7590.11 7439.61 7297.00 7161.87 7033.86 6912.63 6797.88 6689.30 6586.65 6489.66 6445.50 6359.64 6278.84 6202.91 6131.69 6065.04 6002.83 5944.92 5891.22 5841.62 5796.03 5754.38 5716.60 5682.63 5652.43 5625.96 5603.18 5584.08 5568.64 5556.88 5548.79 5544.40 5543.73 5546.82 5553.72 5564.49 5579.20 5597.93 5620.78 5647.86 5679.29 5715.21 5529.89 5576.76 5628.62 5685.68 5748.16 5816.33 5890.47 5970.88 6057.91 6151.94 6253.39 6362.70 6480.39 6607.02 6743.20 6889.61 7047.02 7216.26 7398.27 7594.09 7804.89 8031.96 8276.77 8540.95 8826.36 9135.08 9469.50 9832.29 10226.54 10655.76 11124.02 11635.96 12197.02 12813.47 13492.69 14243.34 15075.65 16001.78 17036.28 18196.68 19504.21 20984.86 22670.64 24601.38 26827.12 29411.40 32435.90 36007.01 40265.29 45399.53 51667.96 59431.01 69203.71 81741.62 98187.77 120333.81 151112.49 195683.00 265243.79 396436.02 726368.88 1612256.93 3455731.38 5788651.53 6275880.29 4201006.54 2076855.28 920506.46 467423.34 297683.29 215627.59 165342.37 131331.49 107251.09 89643.90 76434.14 66314.99 58432.69 52211.82 47254.12 43277.72 40079.38 37510.40 35460.78 33848.70 32613.34 31709.94 31106.44 30781.16 30721.30 30922.03 31386.12 32124.04 33154.52 34505.63 36216.58 38340.17 40946.65 44128.95 48010.41 52755.93 58588.56 65814.52 74861.96 86342.51 101152.36 120644.00 146930.54 183455.93 236231.94 318024.44 469275.24 840376.11 1832905.89 3937685.15 6734297.39 7601677.89 5281926.77 2686476.20 1215453.81 638343.83 466975.73 463010.93 513178.33 470407.14 325761.23 201139.87 131441.05 97968.99 79744.63 67463.80 58216.18 50943.70 45083.62 40275.23 36271.85 32898.40 30026.90 27561.61 25429.47 23573.80 21950.01 20522.62 19263.08 18148.24 17159.21 16280.46 15499.20 14804.87 14188.78 13643.76 13164.02 12744.90 12382.81 12075.10 11820.06 11616.86 11465.61 11367.38 11324.81 11340.41 11419.54 11568.89 11797.45 12196.93 12623.91 13178.19 13887.24 14787.95 15930.59 17384.79 19248.84 21664.83 24843.67 29108.52 34973.29 43296.65 55677.27 76147.23 119159.24 232469.66 510825.52 1001780.02 1453464.05 1310265.25 780019.68 369765.15 171525.15 96021.82 65251.13 48747.92 38121.85 30753.21 25429.58 21460.09 18421.39 16042.71 14144.64 12344.07 11078.05 10022.64 9132.71 8374.66 7722.99 7158.13 6664.82 6231.04 5847.21 5505.62 5200.02 4925.27 4677.15 4452.12 4247.26 4060.07 3888.45 3730.62 3595.78 3461.22 3336.44 3220.46 3112.41 3011.53 2917.16 2828.71 2745.66 2667.56 2594.00 2524.60 2459.04 2397.03 2338.30 2282.62 2229.77 2179.55 2131.79 2086.32 2043.00 2001.70 1962.29 1924.65 1888.70 1854.32 1821.44 1789.98 1759.85 1730.99 1703.35 1676.85 1651.45 1627.09 1603.73 1581.33 1559.84 1539.23 1519.46 1500.49 1482.31 1464.88 1448.17 1432.17 1416.84 1402.16 1388.13 1374.71 1361.90 1349.67 1338.01 1326.91 1316.36 1306.34 1296.85 1287.87 1279.40 1271.43 1263.95 1256.96 1250.45 1244.42 1238.86 1233.78 1229.16 1225.02 1221.34 1218.13 1215.39 1213.12 1211.32 1210.01 1209.17 1208.82 1208.97 1209.61 1210.77 1212.44 1214.63 1217.36 1220.64 1224.49 1228.90 1233.91 1239.53 1245.77 1252.66 1342.52 1351.49 1361.19 1371.64 1382.87 1394.92 1407.80 1421.56 1436.25 1451.89 1468.53 1486.23 1505.04 1525.00 1546.19 1568.67 1592.50 1617.77 1644.55 1672.94 1703.04 1734.94 1768.77 1804.65 1842.72 1883.12 1926.01 1971.58 2020.02 2071.54 2126.38 2184.80 2247.07 2313.52 2384.49 2460.38 2541.61 2628.66 2722.07 2822.45 2930.46 3046.86 3172.52 3308.41 3455.63 3615.44 3789.29 3999.18 4206.49 4433.62 4683.12 4958.01 5261.81 5598.68 5973.56 6392.36 6862.16 7391.56 7991.05 8673.50 9454.94 10355.40 11400.31 12622.23 14063.45 15779.72 17845.67 20363.14 23474.05 27381.38 32388.16 38989.25 48102.06 61336.36 81371.64 110820.99 155116.62 246524.89 486239.91 1023246.43 1849153.09 2396021.87 1934597.59 1096845.93 521307.24 253266.40 148408.19 102481.16 76566.34 59550.80 47642.91 38990.94 32517.88 27555.50 23672.04 20578.97 18077.91 16028.89 14331.05 12910.22 11736.36 10716.80 9844.37 9093.87 8445.50 7883.57 7395.58 6971.51 6603.33 6284.62 6010.29 5776.41 5580.03 5419.10 5292.48 5199.87 5141.95 5120.48 5138.49 5200.65 5313.78 5487.57 5735.84 6078.26 6543.38 7173.33 8032.01 9108.02 10788.34 13249.28 17126.02 24415.44 41838.80 85259.45 171627.91 282237.03 315511.81 224227.45 119818.59 57453.69 30352.43 19592.52 14467.76 11388.66 9311.21 7834.97 6749.61 5929.60 5295.92 4796.92 4397.72 4074.14 3808.99 3589.77 3407.28 3254.56 3126.33 3018.49 2927.88 2851.94 2788.70 2736.54 2694.17 2660.56 2634.86 2616.41 2604.62 2599.08 2599.45 2605.47 2616.95 2633.76 2655.81 2683.10 2715.63 2753.52 2796.86 2845.84 2922.02 2983.15 3051.26 3125.61 3207.24 3296.57 3394.26 3500.97 3617.39 3744.48 3883.23 4034.70 4200.30 4381.56 4580.07 4798.00 5037.70 5302.99 5594.70 5917.71 6255.06 6655.14 7102.45 7604.89 8171.25 8812.79 9543.04 10379.56 11343.05 12460.62 13766.71 15305.94 17136.94 19337.94 22015.15 25315.56 29447.11 34711.48 41558.84 50683.72 63201.49 81024.36 108054.72 155500.43 261230.87 524111.42 1081734.14 1904926.65 2411763.73 1927457.96 1101813.15 535039.83 265884.71 157559.53 109269.06 81937.14 63979.46 51399.43 42253.62 35411.68 30170.81 26076.08 22823.16 20202.57 18066.60 16309.27 14851.33 13635.91 12618.82 11766.76 11054.26 10461.89 9974.92 9582.46 9276.85 9053.43 8909.81 8846.99 8868.64 8981.73 9198.05 9534.89 10017.29 10681.90 11581.64 12795.06 14441.17 16705.45 20056.04 24689.87 32099.90 45379.58 76055.48 150948.55 300808.25 501907.47 586984.05 438401.52 243752.38 119629.00 62665.13 39566.80 28820.28 22527.81 18332.51 15372.48 13211.18 11590.82 10349.82 9382.94 8619.44 8010.42 7521.32 7127.23 6809.88 6555.70 6354.53 6198.73 6082.54 6001.70 5953.08 5934.56 5944.81 5983.26 6050.02 6145.91 6272.46 6432.01 6627.84 6864.31 7147.18 7483.97 7884.44 8361.39 8931.70 9617.95 10452.32 11473.64 12742.77 14344.95 16529.84 19243.76 22914.20 28052.14 35639.87 48247.03 74349.91 137833.06 278331.51 509260.88 714295.74 650121.68 407077.93 209983.97 106370.48 62946.41 44579.02 35013.86 29083.59 25136.03 22445.91 20610.23 19385.43 18619.28 18215.31 18112.96 18276.12 18686.59 19340.40 20246.16 21424.85 22910.96 24754.99 27027.84 29827.47 33289.35 37602.56 43035.09 49974.75 58997.12 70982.92 87330.76 110392.48 144733.06 202430.59 323028.68 614884.28 1253867.57 2288223.52 3179939.89 2861433.22 1776865.46 906620.03 448722.25 254971.22 171521.38 127062.29 98728.25 79129.61 64995.68 54492.39 46494.28 40279.15 35367.52 31431.70 28242.16 25634.76 23490.04 21719.95 20259.04 19058.53 18082.36 17304.55 16707.49 16281.00 16022.03 15935.05 16033.25 16340.75 16896.51 17760.78 19025.95 20835.29 23416.30 27145.82 32715.27 41773.55 59524.94 101429.20 197786.51 371651.11 568813.86 594840.57 418125.61 235527.29 122700.76 69067.47 45592.45 34112.73 27447.36 23111.21 20148.87 18120.98 16830.71 16333.23 17215.27 20938.81 29059.56 39952.72 43994.84 35027.27 23664.54 16287.55 12732.79 11180.80 10407.75 9939.91 9628.42 9417.29 9277.60 9191.91 9148.97 9141.31 9163.83 9212.97 9286.28 9382.03 9499.11 9636.81 9794.79 9972.97 10171.56 10390.96 10631.82 10894.96 11181.40 11492.41 11829.43 12194.15 12588.53 13014.79 13475.47 13973.44 14511.98 15094.81 15726.16 16410.86 17154.43 17958.27 18839.43 19801.34 20853.62 22007.44 23275.83 24674.03 26219.93 27934.74 29843.62 31976.71 34370.28 37068.33 40124.61 43605.41 47593.13 52191.30 57531.39 63782.37 71164.30 79968.00 90584.24 103547.75 119605.76 139827.48 165784.98 199864.27 245835.85 310117.30 405877.17 569004.01 904391.71 1647342.37 3106667.36 5296056.76 7198300.88 7783263.36 7130334.37 4993291.47 2830688.56 1484782.53 829662.02 537039.62 390365.75 301466.90 240947.05 197458.79 165172.43 140592.04 121487.53 106382.01 94267.26 84437.02 76385.32 69754.14 64246.60 59668.32 55861.74 52707.46 50113.52 48009.59 46342.52 45073.20 44174.45 43629.58 43431.68 43584.01 44098.24 44998.69 46322.08 48120.85 50467.34 53460.07 57232.84 61968.51 67919.88 75442.53 85047.87 97495.10 113975.20 136543.32 169083.24 219056.60 301830.19 456249.49 778228.62 1435815.56 2493761.69 3450442.69 3228737.33 2194885.81 1411086.08 1235108.12 1688984.55 2589139.35 3222390.26 2697675.22 1659058.95 884306.60 477813.43 297312.97 212721.12 164248.86 131890.35 108694.38 91412.23 78165.32 67771.89 59455.64 52689.20 47103.94 42435.73 38491.10 35125.68 32229.82 29719.03 27527.28 25602.38 23902.56 22394.12 21049.60 19846.42 18765.90 17792.47 16913.08 16116.72 15394.05 14737.14 14139.21 13594.43 13097.82 12645.07 12232.47 11856.85 11515.46 11205.96 10926.35 10674.95 10450.35 10251.44 10077.31 9927.32 9801.05 9698.29 9619.07 9554.47 9523.48 9517.62 9538.01 9586.06 9663.60 9772.87 9916.66 10098.36 10322.07 10592.81 10916.67 11301.08 11755.16 12290.13 12919.88 13661.80 14537.75 15575.58 16811.10 18290.93 20076.65 22250.83 24926.18 28259.55 32474.20 37896.14 45015.42 54594.77 67880.58 87143.98 117705.51 175555.30 305748.42 594544.69 1112503.28 1730220.75 1892918.79 1379077.53 782133.84 400686.58 216448.42 136308.02 97358.24 74270.58 58767.74 47734.36 39601.67 33440.79 28665.10 24889.57 21853.53 19375.63 17326.68 15612.71 14164.09 12928.36 11853.93 10932.71 10128.76 9422.72 8799.09 8245.31 7751.15 7308.19 6909.46 6549.14 6222.34 5924.95 5653.46 5404.89 5176.67 4966.61 4772.79 4593.55 4427.45 4273.23 4129.77 3996.10 3871.35 3754.75 3645.67 3543.44 3447.54 3357.50 3272.88 3193.30 3118.41 3047.90 2981.49 2918.93 2859.98 2804.46 2752.17 2702.96 2656.67 2613.18 2572.36 2482.56 2447.12 2414.09 2383.42 2355.05 2328.94 2305.06 2283.41 2263.96 2246.74 2231.76 2219.05 2208.67 2200.68 2195.16 2192.21 2191.95 2236.98 2242.92 2252.07 2264.69 2281.06 2301.50 2326.41 2356.25 2391.56 2432.98 2481.27 2537.33 2602.26 2677.37 2764.25 2864.85 2981.55 3117.34 3275.95 3462.09 3681.83 3943.03 4256.02 4634.63 5097.66 5671.21 6392.28 7314.68 8509.33 10120.46 12341.23 15541.10 20574.57 29940.71 50484.12 95157.47 175054.38 273118.14 308003.58 236746.81 143993.69 78584.97 43733.06 27571.02 19900.35 15906.06 14032.48 14160.31 16431.30 19756.59 20173.74 15974.31 11221.44 8051.22 6371.23 5531.90 5067.04 4775.21 4585.43 4469.62 4413.71 4410.06 4455.05 4547.98 4690.69 4887.41 5145.04 5473.67 5887.43 6405.90 7056.28 7876.68 8921.43 10269.61 12039.36 14412.90 17684.00 22372.96 29628.31 42714.05 70807.67 132641.81 247872.88 402205.22 485765.90 391941.14 238140.27 126744.86 67913.50 41293.05 28760.15 21701.83 17089.76 13845.85 11472.00 9684.12 8305.07 7219.52 6349.89 5642.52 5059.38 4572.92 4162.81 3813.81 3530.81 3271.88 3046.40 2848.79 2674.61 2524.17 2386.76 2263.86 2153.47 2053.94 1963.88 1882.13 1807.69 1739.71 1677.47 1620.34 1567.79 1519.34 1474.60 1433.19 1319.44 1284.25 1167.57 1137.66 1109.84 1083.94 1059.82 1037.34 1016.38 996.82 978.57 961.54 945.65 930.83 917.01 904.13 892.15 881.01 870.66 861.08 852.21 845.27 837.77 830.90 824.64 818.96 813.86 809.30 805.29 801.79 798.80 796.32 794.32 792.81 791.78 796.36 796.32 796.74 797.63 798.99 800.82 803.13 805.92 809.19 812.96 817.23 822.01 827.31 833.14 839.53 846.48 854.01 861.40 870.16 879.57 889.64 844.62 864.62 877.27 890.71 904.99 920.15 951.18 917.66 936.14 958.25 979.00 1013.82 1037.19 1061.95 1088.18 1116.01 1145.53 1176.87 1210.18 1245.61 1283.33 1323.54 1366.48 1412.39 1461.59 1514.44 1571.39 1633.01 1700.04 1773.56 1855.40 1949.67 2067.23 2232.13 2477.54 2810.34 3128.37 3211.88 3116.10 3055.06 3092.28 3210.30 3379.46 3583.01 3816.22 4080.01 4377.65 4713.84 5094.63 5527.63 6022.36 6590.76 7247.92 8013.02 8910.79 9973.47 11243.67 12778.69 14656.89 16987.61 19926.98 23703.74 28663.16 35346.34 44659.01 58374.70 80976.72 125171.40 220893.50 413101.17 720262.16 1029403.93 1032639.13 725678.26 417075.17 223050.98 126182.97 81472.35 58667.59 44863.26 35503.04 28791.17 23813.79 20025.76 17079.47 14744.79 12864.68 11329.19 10059.55 8998.21 8102.33 7339.50 6684.88 6119.14 5627.10 5196.67 4818.15 4483.69 4154.64 3890.33 3653.99 3441.94 3251.13 3078.96 2923.22 2782.03 2653.80 2537.12 2430.81 2333.83 2245.28 2164.37 2090.42 2022.81 1961.04 1904.62 1863.72 1816.93 1774.42 1735.91 1701.15 1669.94 1642.09 1617.45 1595.87 1577.24 1561.47 1548.49 1538.23 1530.66 1525.76 1523.52 1523.96 1527.11 1533.02 1541.76 1556.99 1571.72 1589.64 1610.89 1635.70 1664.28 1696.92 1733.93 1775.68 1822.59 1875.18 1934.01 1999.77 2073.26 2155.40 2247.28 2350.22 2465.74 2595.70 2742.32 2908.27 3096.83 3312.01 3558.81 3843.46 4173.83 4560.00 5015.01 5555.98 6205.74 6995.26 7967.37 9182.62 10728.82 12736.94 15409.48 19078.72 24370.72 32785.13 48456.45 81303.89 147396.42 257168.65 382554.59 417781.64 321997.38 209574.06 145417.74 129958.30 132692.36 114467.82 79156.95 49478.48 31197.61 21462.67 16264.04 13126.30 10970.11 9381.95 8169.30 7221.89 6468.86 5862.23 5368.54 4963.87 4652.69 4378.41 4153.16 3969.73 3822.77 3708.41 3624.03 3568.12 3540.29 3541.32 3573.41 3640.63 3749.65 3911.15 4142.28 4472.25 4959.53 5751.66 7246.73 10315.78 16155.89 25119.59 33785.83 33724.23 25414.40 17273.78 12381.19 10349.88 10066.82 10848.58 12656.65 16254.65 23889.00 39874.48 68618.50 107380.47 132167.39 113758.90 75177.48 44536.05 26982.52 18604.91 14812.00 12989.65 12093.01 11753.33 11829.21 12266.21 13060.25 14249.81 15921.36 18229.94 21457.36 26209.61 34047.43 48832.00 77671.96 127739.26 194887.05 242137.72 229108.76 203305.49 222613.27 301176.77 400085.96 417787.81 346160.76 293645.20 306137.56 360357.99 394236.16 333867.70 222068.28 131818.30 77981.28 50320.78 36204.81 28056.72 22655.43 18768.42 15848.36 13592.15 11809.77 10375.26 9202.24 8229.83 7414.05 6722.49 6130.79 5620.36 5176.81 4788.81 4447.39 4145.33 3876.78 3636.97 3421.94 3228.41 3053.65 2895.34 2751.52 2620.52 2500.93 2391.51 2291.20 2199.08 2114.36 2036.33 1964.39 1897.99 1836.66 1779.98 1727.58 1679.14 1634.36 1592.99 1554.79 1519.56 1487.83 1458.03 1430.73 1405.78 1383.10 1362.59 1344.16 1327.74 1313.29 1300.76 1290.12 1281.34 1274.42 1269.36 1266.18 1270.28 1270.98 1273.67 1278.43 1285.35 1294.53 1306.13 1320.29 1337.24 1357.22 1380.56 1407.67 1439.15 1475.95 1520.03 1575.94 1652.92 1761.26 1903.16 2044.30 2109.82 2113.59 2131.75 2191.69 2291.40 2423.18 2583.17 2772.46 2995.50 3259.21 3573.06 3949.79 4406.71 4967.66 5666.16 6550.36 7691.34 9197.39 11241.92 14134.26 18553.18 26275.65 41703.82 72959.59 128443.21 204148.77 257479.36 228274.49 152700.17 88880.25 50333.73 30801.36 21319.03 16250.13 13148.16 11096.14 9715.88 8819.98 8311.67 8154.42 8368.20 9059.74 10551.01 13738.50 20640.97 34294.03 56432.78 81289.34 88158.63 68275.77 43031.44 25092.56 15109.57 10167.21 7647.05 6172.02 5191.28 4491.64 3973.62 3581.64 3277.93 3040.00 2851.83 2702.22 2583.17 2488.87 2415.05 2358.51 2316.84 2288.24 2271.37 2265.24 2269.12 2282.56 2305.30 2337.23 2378.45 2429.20 2489.88 2561.08 2643.55 2738.27 2846.46 2969.60 3109.53 3268.50 3449.28 3655.28 3890.76 4161.05 4472.91 4835.04 5258.77 5740.06 6337.43 7059.82 7947.15 9057.93 10482.22 12373.24 15047.76 19291.78 26999.22 41666.51 67099.51 102384.41 130913.63 125098.85 96889.27 74146.17 66393.48 76312.12 110958.25 185174.81 310799.98 464312.26 535238.52 437474.62 282397.77 163922.58 95010.72 60229.72 42828.14 33087.14 26893.69 22664.37 19701.63 17631.73 16234.50 15381.10 15005.52 15092.08 15674.09 16843.71 18779.78 21824.81 26737.56 35470.27 52817.12 87786.42 150522.91 239693.14 314067.19 297392.11 212649.77 135871.55 91479.79 72415.10 60496.47 45585.80 31838.70 22187.10 16242.03 12684.08 10410.20 8808.78 7599.70 6650.64 5887.50 5262.66 4743.29 4306.02 3933.75 3613.72 3336.22 3093.76 2880.46 2691.65 2523.61 2373.28 2238.20 2116.30 2005.89 1905.60 1814.11 1730.44 1653.72 1583.21 1518.26 1458.32 1402.90 1351.57 1303.97 1259.77 1218.69 1180.46 1144.88 1111.73 1080.85 1052.07 1025.27 1000.31 977.10 955.52 935.50 916.97 899.85 885.10 870.68 857.53 845.63 834.96 825.50 824.58 817.57 811.78 807.22 803.92 794.52 793.90 794.68 796.95 800.79 806.33 811.94 821.30 832.85 846.83 863.53 883.30 906.58 933.89 965.92 1003.50 1047.73 1100.00 1162.20 1236.83 1327.39 1438.83 1578.38 1757.17 1993.80 2325.56 2842.38 3762.57 5512.46 8630.07 13252.80 17853.60 18440.17 14562.54 10265.45 7463.35 6179.86 5935.37 6345.91 7281.27 8853.71 11520.73 16510.64 26480.48 45407.09 75926.22 112023.34 127805.31 104616.67 68280.08 40201.74 23518.67 14884.74 10493.89 8034.65 6485.62 5449.29 4766.88 4395.30 4405.74 5004.70 6450.77 8744.27 10864.57 10576.89 8010.12 5375.41 3566.69 2528.52 1966.69 1640.92 1425.12 1266.48 1142.93 1043.49 961.57 892.83 834.31 783.87 742.42 703.90 669.85 639.58 612.56 588.33 566.55 543.27 525.58 509.61 495.20 482.21 470.53 453.39 444.11 435.91 429.35 422.07 416.94 407.04 403.92 401.82 400.79 400.87 402.15 404.72 408.70 414.27 421.63 431.04 442.82 457.38 475.27 497.17 523.97 556.85 597.40 647.78 710.96 791.19 894.61 1030.38 1212.78 1465.99 1838.43 2445.72 3567.72 5759.47 9762.52 15902.80 22544.47 24375.10 19206.66 12405.81 7366.64 4408.00 2866.38 2063.48 1598.78 1294.82 1079.81 921.03 800.48 706.92 632.98 573.62 525.33 485.60 452.61 425.00 401.75 382.09 365.42 351.29 339.32 329.25 320.85 313.96 308.46 304.26 301.31 299.58 299.10 299.91 302.09 305.78 311.15 320.40 330.02 342.39 358.15 378.20 403.76 436.59 479.23 535.50 611.37 716.97 872.79 1127.57 1597.21 2506.33 4147.46 6638.51 9304.32 10016.80 7932.14 5191.19 3148.96 1939.43 1303.28 970.28 777.80 652.44 564.17 499.34 450.45 412.84 383.46 360.22 341.64 326.70 314.64 304.88 297.01 290.70 285.70 281.82 278.91 277.61 276.30 275.66 275.64 276.18 277.26 274.13 276.21 278.77 281.78 285.24 289.16 293.54 298.39 303.73 309.57 315.94 322.86 330.37 338.50 347.31 356.85 367.18 378.39 390.55 403.80 418.26 434.09 451.51 469.21 490.72 514.95 542.58 574.60 612.59 659.47 721.64 813.86 965.68 1220.18 1609.64 2084.34 2397.59 2333.25 2041.04 1713.83 1483.15 1373.98 1355.01 1392.53 1465.78 1565.68 1690.17 1840.80 2021.48 2238.10 2499.24 2816.95 3208.41 3698.92 4328.78 5172.07 6386.50 8308.32 11530.99 16770.67 24276.71 32389.49 36732.20 37744.94 43272.63 60469.97 93375.26 138037.28 169627.77 154286.31 109039.36 67692.40 40377.75 25030.11 16938.61 12465.44 9693.04 7794.03 6414.38 5377.35 4579.04 3952.58 3453.03 3049.29 2719.38 2447.44 2219.76 2032.09 1875.99 1747.30 1642.02 1558.62 1496.38 1455.96 1439.91 1454.03 1501.63 1634.17 1914.55 2476.51 3486.23 5005.36 6646.60 7241.34 6424.42 5545.44 5469.30 6059.19 6262.14 5231.01 3731.54 2530.15 1765.28 1330.93 1088.07 941.28 842.68 771.37 717.80 676.80 645.19 620.87 602.40 588.81 573.56 567.92 565.70 566.74 570.97 578.56 588.73 603.04 621.23 643.61 670.77 703.40 742.39 788.87 844.29 910.56 990.19 1086.37 1203.55 1347.74 1527.29 1754.09 2045.43 2427.41 2941.71 3663.53 4753.73 6589.96 9982.35 16270.26 26826.15 41400.27 54247.07 53675.92 40369.46 26022.85 15834.66 9849.09 6662.37 4970.31 4005.90 3422.85 3086.17 2959.13 3083.18 3610.95 4830.78 7069.80 10345.18 13518.00 13820.86 10806.94 7231.63 4584.46 2975.37 2087.59 1595.24 1295.43 1091.63 942.34 828.20 738.49 666.46 607.62 558.84 517.90 483.19 453.49 427.91 405.74 386.44 369.58 354.83 341.90 330.57 320.67 312.05 304.59 298.19 292.76 288.26 284.62 281.82 279.86 278.64 278.20 278.55 279.69 281.65 284.45 288.15 292.79 298.43 305.18 313.12 322.38 333.10 345.48 359.79 376.12 394.88 416.43 441.26 469.92 503.15 541.52 586.80 640.13 703.40 779.11 870.57 982.29 1120.50 1293.99 1515.50 1804.01 2189.47 2724.40 3517.26 4816.87 7161.75 11479.60 18848.41 29506.80 40427.54 43145.41 34604.60 23128.94 14253.47 8728.72 5663.27 4000.66 3033.24 2406.94 1967.00 1642.99 1397.42 1207.38 1057.86 938.41 842.25 764.09 700.21 647.90 605.14 570.44 542.68 521.07 505.08 494.36 488.79 488.44 493.61 504.83 522.94 549.20 585.44 634.27 699.50 786.75 904.60 1067.01 1299.85 1658.99 2271.55 3394.46 5423.46 8725.84 13138.01 16821.62 16417.52 12376.05 8074.54 4984.29 3124.49 2100.49 1534.03 1192.60 964.54 800.90 678.48 584.41 510.60 451.69 404.00 364.95 332.70 305.95 283.84 265.97 252.61 245.00 245.51 255.54 273.29 285.48 271.66 237.98 205.03 180.60 164.33 153.62 146.15 140.50 135.98 132.29 129.26 126.83 124.95 123.60 122.33 122.09 122.48 123.60 125.56 128.58 132.96 139.13 147.81 160.24 178.95 209.65 264.41 363.87 532.14 776.66 1037.28 1129.04 953.83 687.33 471.92 334.42 257.74 217.75 197.00 186.25 181.43 180.82 183.71 189.86 199.38 212.69 230.55 254.22 285.67 328.15 387.68 477.06 624.89 887.99 1353.63 2105.11 3117.89 4016.04 4039.90 3180.51 2198.31 1478.68 1051.30 836.15 749.36 739.20 786.16 895.55 1101.62 1488.17 2211.12 3476.68 5412.84 7730.81 9118.17 8169.42 5885.66 3799.62 2373.47 1529.30 1060.30 793.26 626.93 513.21 430.51 368.16 320.75 282.90 252.71 228.34 208.49 192.22 178.86 167.89 158.95 151.75 146.11 141.90 139.05 137.53 137.40 138.75 141.76 146.72 154.03 164.32 178.48 197.87 224.64 262.55 319.15 411.19 573.69 866.59 1361.92 2090.32 2903.25 3279.29 2826.04 2002.44 1293.79 819.90 541.60 386.74 297.37 241.02 202.27 174.12 153.08 137.13 125.00 115.91 109.39 105.23 103.57 105.07 111.60 127.12 158.29 212.51 291.84 375.21 403.16 344.61 255.54 182.72 135.97 111.01 101.72 105.07 121.42 152.05 189.85 212.26 193.95 151.30 111.65 83.77 66.56 56.44 50.28 46.17 43.16 40.82 38.93 37.36 36.04 34.91 33.93 33.07 32.31 31.19 30.58 30.03 29.54 29.10 28.70 28.81 28.49 24.96 24.75 24.58 24.47 24.43 24.47 24.66 25.07 25.82 27.02 28.66 30.40 32.05 34.67 39.85 48.23 58.06 62.96 57.58 47.08 37.77 31.38 27.55 25.37 24.12 23.34 22.84 22.52 22.82 22.77 22.89 23.27 24.12 25.66 28.05 30.96 32.83 31.72 28.88 26.14 24.22 23.06 22.42 21.98 21.79 21.70 21.66 21.65 21.68 21.73 21.80 21.89 22.00 22.12 22.25 22.40 22.57 22.75 23.59 23.80 24.03 24.27 24.53 24.81 25.11 25.42 25.76 26.12 26.51 26.92 27.36 27.83 28.33 28.87 29.45 30.48 31.16 31.88 32.67 33.53 34.46 35.48 36.60 37.83 39.21 40.76 42.53 44.60 47.13 50.43 54.94 61.14 69.11 77.55 82.83 84.30 83.53 84.51 88.06 94.19 102.83 114.18 128.83 147.91 173.43 209.35 264.07 354.57 509.83 766.41 1147.24 1605.76 1921.11 1820.55 1438.11 1080.27 879.98 866.26 1036.37 1358.84 1710.78 1812.22 1529.23 1107.25 754.63 517.38 375.36 294.88 248.72 220.86 203.71 194.76 190.82 191.89 197.74 208.72 225.75 250.39 285.26 335.14 409.68 529.52 735.71 1095.62 1689.06 2554.61 3550.66 4128.70 3737.18 2767.92 1849.73 1195.67 789.79 554.78 418.27 333.56 277.31 236.10 205.22 181.53 163.03 148.40 136.71 127.31 119.73 113.60 108.69 104.78 101.74 99.45 97.85 96.86 96.46 96.63 97.37 98.69 100.62 103.23 106.60 110.83 116.08 122.56 130.57 140.49 152.91 168.64 188.94 215.86 253.27 309.15 399.79 554.02 811.19 1204.06 1711.86 2152.47 2183.88 1783.62 1292.85 912.08 671.38 541.46 484.55 473.69 496.52 553.41 657.90 842.19 1164.71 1707.77 2542.59 3632.16 4701.32 5169.89 4574.46 3386.94 2295.50 1522.95 1042.74 764.05 603.68 507.69 447.81 410.84 390.86 385.51 394.67 420.72 470.28 558.72 717.51 999.97 1473.48 2182.90 3054.75 3703.28 3567.70 2780.48 1925.80 1276.42 855.10 603.72 456.46 365.98 305.37 262.45 230.11 205.15 185.47 169.80 157.01 146.51 137.81 130.54 124.44 119.28 114.92 111.21 108.08 105.43 103.20 101.34 99.81 98.58 97.61 96.90 96.42 96.15 96.10 96.26 96.61 97.17 97.93 98.91 100.11 101.54 103.24 105.21 107.50 110.14 113.19 116.71 120.80 125.58 131.20 137.90 145.99 155.98 168.70 185.76 210.30 248.07 307.95 400.67 531.53 684.67 801.91 835.76 797.20 696.40 574.96 480.36 425.16 403.81 407.79 430.95 470.73 527.99 606.84 715.51 870.12 1103.92 1483.97 2129.00 3205.50 4867.82 7090.95 9263.16 9911.84 8403.95 6071.79 4065.26 2670.84 1803.51 1291.09 984.52 788.96 654.30 556.04 483.22 425.64 380.27 344.07 314.87 291.14 271.77 255.89 243.08 232.87 225.03 219.58 216.86 217.89 224.72 240.56 268.91 310.85 358.22 383.75 362.25 312.51 264.62 229.58 207.17 193.76 186.21 181.90 179.47 178.22 177.82 178.07 178.87 180.13 181.88 183.94 186.37 189.15 192.27 195.74 199.57 203.76 208.33 213.29 218.68 224.52 230.84 237.68 245.08 253.10 261.78 271.20 281.44 292.57 304.71 317.97 332.49 348.43 365.98 385.38 406.89 430.83 457.59 487.67 521.64 560.24 604.37 655.22 716.81 786.07 868.13 966.55 1086.21 1234.42 1422.31 1669.33 2012.63 2523.85 3327.97 4603.22 6530.05 9143.52 11962.04 13571.81 12956.00 11372.78 10516.48 11299.70 14245.43 19625.81 26948.79 33584.23 34516.33 28655.16 20684.92 14006.11 9361.29 6439.93 4680.47 3605.14 2906.99 2420.39 2062.39 1789.88 1577.88 1410.64 1277.25 1170.06 1083.59 1013.86 957.93 913.66 879.46 854.17 837.19 828.06 826.69 833.32 848.56 873.46 909.66 959.61 1027.68 1117.85 1239.72 1409.05 1656.61 2043.12 2677.60 3722.03 5352.95 7641.94 10249.88 11929.60 11277.95 8935.10 6477.67 4610.50 3393.88 2679.39 2293.49 2106.54 2045.14 2077.25 2198.68 2429.66 2825.37 3497.15 4628.07 6449.57 9137.26 12539.30 15567.88 16147.70 13868.78 10719.05 8166.42 6582.97 5917.11 6079.71 7128.85 9335.33 13103.52 18694.48 25554.29 30978.92 30739.88 24994.88 18003.43 12319.14 8405.42 5943.20 4453.88 3540.00 2948.07 2540.91 2249.31 2037.33 1884.62 1778.85 1712.54 1681.66 1685.00 1724.08 1803.50 1932.13 2125.91 2414.92 2858.94 3574.98 4768.25 6734.92 9786.00 14023.42 18771.14 21706.98 20356.20 15953.17 11334.61 7772.57 5381.32 3894.86 2995.13 2436.56 2068.89 1812.29 1626.27 1489.19 1388.37 1319.99 1270.25 1244.30 1231.43 1235.40 1256.10 1294.64 1353.29 1435.74 1547.68 1697.75 1899.54 2176.24 2571.25 3169.53 4129.16 5705.04 8222.94 11950.14 16756.79 21320.01 22723.82 19699.61 14775.30 10348.34 7138.91 5053.62 3776.73 3002.95 2517.04 2194.44 1970.45 1811.91 1700.62 1625.72 1580.37 1560.39 1563.45 1588.75 1636.90 1709.91 1811.48 1947.42 2126.55 2362.27 2676.01 3105.17 3720.80 4661.16 6170.22 8621.87 12452.33 17938.97 24630.01 30162.85 30582.82 25541.22 18892.69 13297.14 9366.17 6871.89 5384.75 4523.09 4032.27 3773.39 3683.98 3748.91 3992.82 4492.36 5397.97 6940.63 9385.14 12881.78 17087.92 20425.37 20465.91 17228.23 13148.00 9790.84 7493.94 6107.46 5369.76 5054.38 5016.13 5183.80 5537.00 6090.68 6887.15 8016.90 9654.38 12142.31 16115.13 22594.94 32904.69 48196.41 68215.31 88310.29 96936.00 86612.58 66079.96 46382.22 31559.48 21635.64 15404.09 11556.27 9105.66 7448.27 6258.03 5365.20 4676.56 4135.73 3705.55 3360.31 3081.66 2856.30 2674.05 2528.71 2414.59 2328.02 2266.48 2233.05 2218.28 2231.99 2266.10 2328.27 2422.98 2556.88 2739.75 2986.20 3319.01 3776.86 4431.25 5418.75 6986.08 9521.07 13512.57 19367.19 26934.93 34381.70 37386.64 33376.23 25691.18 18357.38 12835.89 9133.87 6811.05 5387.86 4499.96 3922.36 3533.20 3269.75 3099.07 3003.13 2972.42 3003.40 3097.60 3261.89 3509.63 3864.18 4366.74 5094.26 6194.55 7937.82 10758.62 15226.65 21866.16 30680.22 39976.86 45021.15 41685.35 32814.09 23624.62 16436.73 11491.31 8323.38 6349.74 5097.85 4261.66 3669.24 3229.73 2893.79 2632.25 2426.19 2262.60 2132.21 2028.28 1945.79 1881.02 1831.14 1793.98 1767.91 1754.66 1747.32 1748.16 1756.69 1772.58 1795.63 1825.79 1863.13 1907.83 1960.19 2020.63 2089.68 2168.04 2256.56 2356.26 2468.39 2594.46 2736.30 2896.17 3076.90 3282.18 3516.85 3787.24 4101.10 4467.04 4892.59 5378.75 5918.65 6514.71 7204.13 8036.62 9059.28 10325.49 11906.77 13906.79 16484.16 19910.98 24674.55 31689.56 42578.71 59869.13 86766.88 126083.48 177468.62 230685.15 258654.68 238953.79 188019.39 135079.29 93330.55 64310.13 45512.35 33690.38 26153.41 21117.18 17557.30 14925.14 12922.80 11376.81 10177.67 9253.26 8556.43 8059.01 7749.75 7651.23 7778.08 8237.68 9208.13 10970.02 13877.26 18232.80 23971.70 29900.06 32981.26 30865.02 25554.66 20389.98 16927.48 15381.27 15278.02 15512.20 14784.11 13024.99 11225.61 9986.76 9210.71 8370.30 7157.81 5835.66 4704.39 3845.77 3228.81 2793.18 2484.19 2252.27 2071.91 1926.23 1807.72 1705.59 1618.28 1542.92 1476.71 1419.52 1369.39 1325.36 1286.70 1252.81 1223.21 1197.57 1175.58 1157.05 1141.86 1129.91 1121.21 1115.81 1112.37 1114.05 1119.66 1129.64 1144.55 1165.16 1192.49 1227.90 1273.24 1331.05 1404.86 1499.82 1623.74 1789.52 2020.01 2356.78 2871.96 3676.19 4910.67 6708.03 9084.17 11666.28 13329.41 12851.28 10632.74 8061.65 5928.71 4398.02 3385.56 2745.87 2346.16 2097.30 1932.37 1825.53 1764.07 1739.91 1748.43 1781.99 1822.00 1841.31 1834.88 1826.53 1836.32 1871.24 1932.15 2018.57 2130.63 2269.98 2440.21 2647.06 2898.76 3206.77 3586.95 4061.76 4664.27 5446.63 6498.10 7980.34 10183.55 13587.87 18878.63 26838.78 38011.17 51851.91 64889.45 69986.85 63177.50 49621.45 36081.06 25424.13 17932.95 12993.37 9822.30 7763.30 6368.98 5373.40 4629.30 4054.88 3601.73 3238.72 2944.48 2703.75 2505.32 2340.87 2204.10 2090.24 1995.59 1917.35 1853.37 1802.05 1762.25 1733.25 1714.76 1706.93 1710.54 1727.26 1760.41 1816.33 1906.80 2051.71 2280.29 2627.49 3121.38 3751.87 4397.02 4755.28 4579.76 4020.86 3416.13 2931.81 2598.13 2392.98 2281.78 2233.46 2225.97 2246.03 2286.49 2343.85 2416.56 2504.20 2607.06 2726.05 2862.57 3018.60 3196.74 3400.32 3633.55 3901.78 4211.81 4577.97 5000.37 5499.38 6094.69 6812.94 7691.83 8783.98 10173.78 12002.15 14519.66 18168.87 23675.03 32074.86 44574.88 62099.64 84167.94 106306.16 117960.94 110780.79 90702.26 69041.95 51546.11 39292.14 31577.89 27284.32 25458.79 25519.98 27351.37 31335.34 38404.17 50032.13 68004.98 93751.00 126710.42 160536.79 179466.21 169555.70 138268.67 103200.87 73966.86 52583.34 38023.66 28468.34 22211.41 17985.51 14990.55 12764.30 11047.85 9690.95 8599.67 7710.97 6980.44 6376.00 5874.35 5458.99 5119.22 4849.93 4651.42 4528.39 4491.28 4531.58 4631.21 4715.44 4673.50 4486.47 4256.74 4076.03 3979.63 3974.24 4059.73 4237.87 4526.62 4958.29 5600.95 6578.69 8096.22 10447.47 13979.51 18974.71 25359.08 32017.40 36069.64 34713.28 28993.54 22200.80 16347.62 11968.81 8936.69 6923.08 5597.35 4703.97 4074.86 3610.40 3254.04 2973.08 2747.33 2563.41 2411.93 2286.05 2180.69 2092.00 2017.02 1951.34 1897.42 1851.68 1813.00 1780.43 1753.24 1730.80 1712.63 1698.30 1687.48 1679.89 1675.29 1673.50 1674.37 1677.76 1683.59 1691.79 1702.29 1715.07 1730.12 1747.43 1767.03 1788.93 1813.20 1839.89 1869.08 1900.86 1935.34 1972.65 2012.94 2056.36 2103.11 2153.39 2207.46 2265.57 2328.03 2395.19 2467.43 2545.18 2628.95 2736.02 2833.61 2939.14 3053.45 3177.49 3312.39 3459.43 3620.13 3800.18 3993.89 4207.66 4444.53 4708.17 5003.09 5334.88 5710.56 6139.09 6632.05 7204.83 7879.87 8685.64 9671.74 10918.62 12562.17 14821.96 18021.02 22556.03 28818.29 36953.51 46297.93 54402.05 57466.01 54519.65 48958.57 44241.68 41935.31 42502.65 46241.06 53783.40 66443.30 86391.58 116507.98 159645.44 216686.89 282094.24 338360.76 361487.69 340103.98 284707.55 219089.61 161264.81 117187.48 86101.83 65106.18 51153.93 41799.86 35362.37 30802.62 27519.73 25175.32 23581.46 22642.95 22336.53 22717.35 23952.24 26378.51 30581.69 37424.03 47976.96 63243.07 83480.60 106567.55 125287.52 128784.04 114271.42 91067.66 68551.92 50556.90 37475.59 28467.14 22420.03 18346.85 15524.43 13488.01 11962.43 10789.24 9875.05 9165.18 8615.66 8205.61 7920.76 7757.52 7714.26 7807.14 8067.21 8554.70 9378.04 10734.20 12850.14 16071.15 20712.98 26891.66 34067.32 40227.76 42041.20 38156.31 31111.66 23976.66 18146.67 13847.02 10854.91 8833.73 7470.68 6529.05 5852.63 5347.11 4957.61 4651.58 4408.59 4214.95 4061.07 3940.01 3846.72 3777.51 3729.74 3701.59 3691.94 3700.22 3726.42 3771.08 3835.29 3920.75 4029.95 4166.25 4334.21 4539.92 4790.95 5099.65 5480.86 5964.12 6569.39 7359.84 8430.57 9941.51 12145.44 15400.55 20140.21 26766.07 35389.19 45210.20 53463.08 55846.26 50851.06 41865.68 32746.71 25199.03 19499.25 15466.75 12739.40 10937.00 9750.93 8968.02 8453.04 8126.12 7939.62 7864.89 7884.53 7988.23 8170.55 8429.77 8767.34 9187.63 9697.99 10309.05 11035.25 11895.67 12915.26 14128.41 15574.25 17311.27 19416.03 21995.00 25203.13 29275.41 34604.05 41819.85 51941.15 66499.30 87578.99 117644.25 158918.06 211567.44 270029.69 320253.82 348739.24 353508.53 333861.03 288728.27 230020.92 174066.44 128944.02 95561.14 71978.72 55672.43 44386.61 36407.80 30570.41 26139.78 22669.37 19885.55 17613.08 15733.07 14160.67 12833.18 11703.17 10734.17 9897.76 9171.57 8537.80 7982.17 7493.14 7061.31 6679.02 6339.99 6039.10 5772.18 5535.97 5327.87 5146.73 4992.17 4865.72 4771.36 4716.09 4709.60 4762.74 4883.08 5064.84 5266.29 5386.84 5317.70 5068.65 4754.24 4466.99 4241.56 4080.43 3981.96 3918.78 3886.24 3873.57 3873.92 3886.23 3912.27 3953.40 4010.35 4083.71 4174.33 4283.42 4412.74 4564.63 4742.11 4949.08 5190.40 5476.58 5806.71 6195.03 6654.26 7200.95 7856.91 8651.49 9625.45 10838.07 12380.86 14402.65 17145.38 21022.27 26636.80 34816.10 46521.04 62598.01 83194.72 106389.66 125987.12 132313.74 121253.15 99695.51 76875.93 57554.86 42842.02 32291.60 24984.15 19981.14 16515.57 14042.54 12202.45 10799.33 9695.79 8811.73 8094.34 7506.80 7022.30 6620.81 6287.08 6009.35 5778.44 5587.13 5429.69 5301.57 5199.11 5119.37 5059.99 5019.08 4995.12 4986.94 4993.61 5014.45 5048.98 5096.92 5158.13 5232.65 5320.65 5422.47 5538.59 5669.64 5816.37 5979.86 6161.24 6361.88 6583.42 6827.75 7097.10 7394.06 7721.65 8083.40 8495.61 8938.84 9430.97 9978.79 10592.63 11277.77 12048.14 12917.98 13904.82 15040.01 16332.08 17824.52 19567.63 21621.98 24069.98 27018.63 30603.29 34990.28 40376.11 46977.38 55036.38 65002.92 78015.10 96227.65 122684.76 161076.01 215273.36 288152.28 378867.31 476871.05 553784.10 570876.68 517052.50 423439.79 326610.99 244794.35 182140.57 136795.05 105044.92 83080.88 67748.45 56765.16 48631.00 42416.68 37556.23 33697.07 30608.95 28134.05 26160.62 24608.60 23421.34 22560.65 22003.86 21742.52 21782.67 22147.05 22880.74 24062.50 25825.77 28392.50 32118.86 37540.67 45393.13 56569.58 71974.78 92165.77 116472.19 141304.25 159434.71 165196.09 161714.85 156966.96 154719.27 151701.38 141410.83 122213.18 99209.36 77819.07 60382.80 47108.32 37379.03 30381.40 25354.20 21685.97 18935.49 16808.40 15117.00 13742.54 12607.76 11659.99 10861.54 10184.40 9607.24 9113.54 8690.37 8327.47 8016.73 7751.65 7527.04 7338.77 7183.56 7058.87 6962.76 6893.83 6851.20 6834.40 6843.42 6878.68 6941.05 7031.89 7153.10 7307.16 7497.29 7725.39 8000.81 8327.72 8713.99 9169.44 9706.44 10340.58 11091.75 11985.51 13055.21 14345.12 15915.77 17853.34 20286.93 23419.23 27575.87 33273.06 41278.57 52676.23 68793.84 90975.93 120124.76 155566.83 192677.20 220302.66 224785.15 203421.15 167838.87 131039.67 99614.25 75193.75 57217.62 44405.59 35394.81 29019.39 24406.06 20960.52 18303.04 16197.27 14494.33 13096.51 11936.34 10965.11 10146.54 9453.09 8863.62 8361.85 7929.04 7568.30 7266.69 7020.20 6827.87 6692.72 6623.18 6634.77 6751.16 7003.24 7424.78 8041.95 8849.74 9759.78 10525.88 10779.05 10333.31 9406.90 8364.77 7434.40 6691.19 6133.63 5732.03 5450.27 5255.37 5121.43 5030.10 4969.36 4931.66 4912.29 4908.25 4917.60 4939.00 4971.60 5014.81 5068.32 5130.05 5203.97 5288.32 5383.43 5489.81 5608.08 5739.03 5883.61 6042.94 6218.38 6411.49 6624.13 6858.49 7117.13 7403.10 7719.99 8072.10 8464.55 8903.53 9396.52 9952.67 10583.20 11302.05 12126.67 13079.12 14187.65 15489.00 17032.12 18884.39 21142.74 23953.50 27545.20 32277.69 38702.62 47616.23 60067.86 77279.03 100415.97 130081.17 165157.29 200555.88 225389.17 227756.99 206487.59 172546.59 137585.31 107580.83 84114.09 66763.55 54417.67 45854.77 40002.80 36038.96 33389.99 31695.74 30734.22 30382.40 30580.47 31314.21 32608.65 34532.56 37213.88 40870.56 45860.43 52748.37 62375.58 75897.27 94739.95 120420.07 154122.86 195754.75 241878.68 282712.18 302944.22 293203.81 260720.47 221084.00 185199.40 156691.22 134737.29 117274.93 103313.73 93008.13 86592.82 84086.68 85584.57 91537.71 102906.06 121200.11 148378.97 186525.20 237126.43 299482.61 367346.00 424484.93 447205.95 422873.72 364124.76 294605.20 230471.22 177876.73 137443.74 107547.00 85931.48 70395.36 59144.77 50818.94 44490.95 39556.63 35630.48 32464.21 29892.81 27802.49 26112.60 24765.64 23721.59 22954.86 22453.00 22217.30 22265.83 22639.87 23415.31 24718.98 26747.81 29783.97 34194.76 40403.04 48809.23 59619.40 72461.55 85652.91 95567.41 97968.79 91760.50 80167.04 67422.64 56137.19 47257.62 40845.90 36623.08 34236.25 33390.24 33921.37 35843.42 39379.22 44979.86 53319.30 65241.06 81623.42 103095.99 129420.78 158195.31 183086.43 194492.85 186437.95 163002.69 133777.69 106007.15 82772.62 64614.04 50993.05 41021.78 33790.04 28514.79 24594.00 21601.73 19253.51 17364.80 15815.68 14526.04 13440.03 12517.07 11726.60 11045.08 10454.06 9938.87 9487.76 9091.22 8741.49 8432.18 8158.01 7914.59 7698.24 7505.86 7334.82 7182.89 7048.18 6929.04 6824.09 6732.12 6652.10 6583.12 6524.43 6475.34 6435.28 6403.77 6380.38 6364.76 6356.59 6355.64 6361.71 6367.99 6387.67 6414.01 6446.95 6486.50 6532.67 6585.51 6645.13 6711.63 6785.17 6865.94 6954.17 7050.12 7154.08 7266.41 7387.49 7517.76 7657.72 7807.93 7969.03 8141.72 8326.85 8525.34 8738.28 8966.87 9212.47 9476.50 9760.43 10065.48 10392.36 10741.03 11111.72 11506.78 11930.92 12389.44 12887.21 13428.78 14018.93 14662.96 15366.99 16138.12 16984.68 17916.47 18945.03 20084.03 21349.69 22761.39 24342.38 26120.76 28130.71 30414.12 33022.77 36021.29 39491.28 43537.43 48297.05 53955.88 60774.80 69134.76 79607.78 93058.38 110767.55 134549.13 166802.59 210426.52 268503.88 343604.11 436285.50 541887.93 645141.68 717309.96 728832.02 675634.72 583781.06 484866.48 398304.19 331602.75 285833.94 259200.65 248363.57 248294.16 251436.01 248458.65 233175.20 207250.03 177363.39 149246.47 125651.09 107271.63 93880.83 84951.04 79925.86 78319.53 79699.28 83507.03 88847.93 93949.07 96583.37 95641.78 92394.38 89418.50 88838.17 91757.37 98369.63 107854.05 117855.87 124303.88 123257.41 114260.71 100695.19 86578.94 74383.07 65094.13 58909.06 55692.91 55163.24 56895.71 60164.30 63651.75 65411.58 63786.78 58790.95 51986.31 45033.89 38872.45 33812.78 29840.21 26808.64 24532.84 22831.83 21552.22 20579.19 19834.32 19265.15 18835.80 18521.22 18303.70 18164.16 18106.10 18116.43 18190.37 18324.76 18517.74 18768.59 19072.36 19440.89 19871.04 20365.92 20929.58 21567.16 22284.92 23090.46 23992.92 25003.23 26134.44 27402.18 28825.20 30426.05 32232.03 34276.31 36599.52 39251.79 42295.53 45809.44 49894.43 54683.00 60354.65 67161.37 75468.85 85818.62 99012.36 116209.26 139010.99 169491.77 210118.58 263497.08 331826.99 415762.63 512018.78 609228.24 684711.46 711296.39 677686.60 599644.03 504865.59 414159.79 337226.94 276567.09 231368.11 199633.87 179192.23 168169.78 165178.00 169294.03 179855.28 196014.37 215953.60 235987.18 250925.99 257311.77 256881.02 255163.86 257118.08 264768.45 277250.26 292473.88 310291.88 334485.45 370955.34 424613.66 497513.11 587010.53 682207.99 760383.75 791994.20 760416.40 677319.34 571072.88 465658.21 373354.29 297831.16 238511.79 193115.07 158884.92 133179.44 113750.74 98841.35 87163.54 77816.59 70186.66 63857.05 58540.12 54031.33 50180.04 46871.88 44017.88 41547.65 39404.84 37543.93 35927.97 34526.77 33315.68 32274.49 31386.70 30638.94 30020.43 29522.71 29139.33 28865.66 28698.79 28637.44 28681.94 28834.31 29098.33 29479.72 29986.41 30628.84 31420.51 32378.53 33524.57 34886.02 36497.40 38404.27 40665.41 43360.77 46601.87 50548.54 55433.21 61592.51 69502.48 79807.91 93331.39 111043.91 133975.36 163027.01 198588.22 239743.83 282855.15 320099.19 340696.63 337432.48 313120.84 278059.05 242264.57 211664.36 188734.07 174145.58 167873.90 169739.40 179624.83 197479.89 223091.29 255524.68 292313.09 329192.03 361695.96 387691.01 407539.71 422988.79 438026.62 458720.44 489597.45 529516.55 569075.54 591460.84 580954.56 535461.81 467975.15 395169.53 328255.64 272016.60 227204.23 192541.77 165805.68 144576.47 126995.29 112127.99 99643.63 89338.02 80954.68 74208.65 68833.87 64603.33 61331.96 58874.63 57124.38 56011.44 55503.59 55607.95 56374.45 57899.95 60330.77 63860.14 68716.43 75125.35 83304.27 93288.27 104766.58 116725.33 127170.26 133592.64 134579.29 131099.57 125703.09 120777.40 117772.15 117376.50 119908.41 125598.54 134770.83 147978.83 166129.27 190595.55 223303.36 266755.73 323952.05 398131.60 492205.60 607579.35 741873.78 885409.32 1018537.97 1115062.61 1153034.98 1123647.77 1033401.85 902849.47 758481.52 621285.80 502186.19 404289.38 326490.35 265985.87 219473.54 183828.84 156371.99 134964.22 117991.90 104286.45 93020.16 83616.03 75663.09 68866.40 63007.85 57921.63 53478.55 49575.98 46131.23 43076.89 40357.63 37927.60 35748.64 33788.76 32021.00 30422.54 28973.96 27658.67 26439.86 25350.52 24357.43 23451.42 22624.57 21869.99 21181.70 20554.50 19983.88 19465.93 18997.29 18575.09 18196.88 17860.63 17564.67 17307.70 17088.76 16907.22 16762.79 16655.52 16585.82 16554.52 16562.88 16612.66 16706.20 16846.47 17037.22 17282.93 17588.96 17961.50 18407.47 18934.23 19548.85 20257.04 21063.01 21972.93 23002.26 24180.54 25548.67 27154.60 29053.94 31315.90 34032.73 37332.72 41393.56 46480.92 52949.55 61280.87 72092.38 86129.10 104222.56 127200.75 155713.41 189886.42 228647.35 268617.57 303084.17 322938.03 321343.36 298990.96 263514.95 223864.87 186204.85 153465.11 126471.24 104990.50 88341.58 75704.51 66278.84 59356.17 54396.60 50978.55 48829.38 47800.99 47856.73 49063.33 51587.36 55691.73 61726.25 70104.84 81260.69 95563.24 113158.95 133660.29 155604.02 175816.72 189473.30 192026.19 182338.97 163620.92 140921.04 118308.23 98002.01 80816.43 66793.86 55622.90 46859.03 40036.29 34725.40 30562.02 27255.85 24586.70 22393.68 20561.83 19009.59 17678.70 16526.68 15521.72 14639.39 13860.45 13169.45 12553.83 12003.27 11509.19 11064.43 10662.98 10299.76 9970.43 9671.32 9399.26 9151.55 8925.83 8720.08 8532.53 8361.68 8206.18 8064.92 7936.91 7821.36 7717.60 7625.11 7543.51 7472.55 7412.05 7361.91 7322.00 7292.01 7271.24 7258.18 7250.07 7243.19 7234.43 7223.31 7212.30 7204.94 7204.01 7211.01 7226.52 7250.60 7283.10 7323.78 7372.43 7428.86 7492.96 7564.71 7644.14 7731.36 7826.56 7929.96 8041.85 8162.55 8292.45 8431.97 8581.58 8741.81 8913.23 9096.50 9292.31 9501.44 9724.75 9963.17 10217.76 10489.66 10780.14 11090.59 11422.56 11777.79 12158.18 12565.86 13003.20 13472.85 13977.79 14521.36 15107.32 15739.90 16423.93 17164.86 17968.91 18843.20 19795.91 20836.44 21975.69 23226.29 24603.04 26123.22 27807.28 29679.41 31768.55 34109.51 36744.67 39726.32 43120.13 47010.40 51507.82 56761.05 62972.91 70421.89 79488.02 90680.36 104660.70 122255.12 144406.89 172282.61 206958.14 249397.09 300088.76 358427.38 421641.25 483443.22 533628.40 560918.57 559303.89 532544.27 491498.73 447429.76 407685.95 375185.49 349657.89 329563.43 314009.04 303717.50 300475.26 305960.26 320982.52 345111.97 376175.23 409424.62 437043.91 449650.59 440681.57 410642.06 366512.17 317028.86 268805.83 225438.42 188265.03 157354.84 132165.02 111903.99 95721.88 82812.85 72468.90 64102.82 57249.53 51548.89 46746.77 42644.24 39099.31 36007.01 33288.30 30882.33 28741.15 26826.23 25106.10 23554.70 22150.29 20874.53 19711.89 18649.14 17674.95 16777.30 15952.24 15190.19 14484.77 13830.38 13222.11 12655.63 12127.13 11633.20 11170.83 10737.32 10330.27 9947.52 9587.13 9247.36 8926.62 8623.49 8336.66</intensities>
      </xrdElement>
    </scan>
  </xrdMeasurement>
</xrdMeasurements>
