<?xml version="1.0" encoding="UTF-8"?>
<xrdMeasurements xmlns="http://www.xrdml.com/XRDMeasurement/1.3" xmlns:xsi="http://www.w3.org/2001/XMLSchema-instance" xsi:schemaLocation="http://www.xrdml.com/XRDMeasurement/1.3 http://www.xrdml.com/XRDMeasurement/1.3/XRDMeasurement.xsd" status="Completed">
	<comment>
		<entry>Configuration=Sample Spinner, Owner=User-1, Creation date=30/May/05 09:52:22</entry>
		<entry>Goniometer=PW3050/60 (Theta/2Theta); Minimum step size 2Theta:0.001; Minimum step size Omega:0.001</entry>
		<entry>Sample stage=Spinner PW3064</entry>
		<entry>Diffractometer system=XPERT-PRO</entry>
		<entry>Measurement program=Riet_cuant_2H30M, Owner=User-1, Creation date=09/Apr/18 08:50:52</entry>
	</comment>
	<sample type="To be analyzed">
		<id>KS_NIST_240418_R1</id>
		<name></name>
		<preparedBy></preparedBy>
	</sample>
	<xrdMeasurement measurementType="Scan" status="Completed" sampleMode="Reflection">
		<comment>
			<entry/>
		</comment>
		<usedWavelength intended="K-Alpha 1">
			<kAlpha1 unit="Angstrom">1.5405980</kAlpha1>
			<kAlpha2 unit="Angstrom">1.5444260</kAlpha2>
			<kBeta unit="Angstrom">1.3922500</kBeta>
			<ratioKAlpha2KAlpha1>0.0000</ratioKAlpha2KAlpha1>
		</usedWavelength>
		<incidentBeamPath>
			<radius unit="mm">240.00</radius>
			<xRayTube id="1010048" name="PW3373/10 Cu LFF DK419152">
				<tension unit="kV">45</tension>
				<current unit="mA">40</current>
				<anodeMaterial>Cu</anodeMaterial>
				<focus type="Line">
					<length unit="mm">12.0</length>
					<width unit="mm">0.4</width>
					<takeOffAngle unit="deg">6.0</takeOffAngle>
				</focus>
			</xRayTube>
			<monochromator id="23010013" name="Inc. Beam 1xGe111 Cu/Co (a1 for reflection mode)" hybrid="false">
				<crystal type="Symmetric" shape="Curved">Ge</crystal>
				<numberOfReflections>1</numberOfReflections>
				<hkl>
					<h>1</h>
					<k>1</k>
					<l>1</l>
				</hkl>
			</monochromator>
			<sollerSlit id="21010002" name="Soller 0.04 rad.">
				<opening unit="rad">0.0400</opening>
			</sollerSlit>
			<mask id="22080002" name="Inc. Mask Fixed  10 mm (MPD/MRD)">
				<width unit="mm">6.60</width>
			</mask>
			<antiScatterSlit id="22010003" name="Slit Fixed 1°" xsi:type="fixedAntiScatterSlitType">
				<height unit="mm">1.52</height>
			</antiScatterSlit>
			<divergenceSlit id="22010012" name="Prog. Div. Slit" xsi:type="fixedDivergenceSlitType">
				<distanceToSample unit="mm">140.00</distanceToSample>
				<angle unit="deg">0.5</angle>
			</divergenceSlit>
		</incidentBeamPath>
		<sampleMovement xsi:type="spinningSampleMovementType">
			<spinnerRevolutionTime unit="seconds">4.0</spinnerRevolutionTime>
		</sampleMovement>
		<diffractedBeamPath>
			<radius unit="mm">240.00</radius>
			<antiScatterSlit id="22060009" name="Prog. AS Slit" xsi:type="fixedAntiScatterSlitType">
				<angle unit="deg">0.5</angle>
			</antiScatterSlit>
			<sollerSlit id="21010002" name="Soller 0.04 rad.">
				<opening unit="rad">0.0400</opening>
			</sollerSlit>
			<detector id="7010013" name="X'Celerator" xsi:type="rtmsDetectorType">
				<phd>
					<lowerLevel unit="%">30.5</lowerLevel>
					<upperLevel unit="%">80.0</upperLevel>
				</phd>
				<mode>Scanning</mode>
				<activeLength unit="deg">2.122</activeLength>
			</detector>
		</diffractedBeamPath>
		<scan appendNumber="0" mode="Continuous" scanAxis="Gonio" status="Completed">
			<header>
				<startTimeStamp>2018-04-25T13:49:55+02:00</startTimeStamp>
				<endTimeStamp>2018-04-25T16:19:58+02:00</endTimeStamp>
				<author>
					<name>Universidad Malaga</name>
				</author>
				<source>
					<applicationSoftware version="2.2d">X'Pert Data Collector</applicationSoftware>
					<instrumentControlSoftware version="2.2B">XPERT-PRO</instrumentControlSoftware>
					<instrumentID>0000000000007944</instrumentID>
				</source>
			</header>
			<dataPoints>
				<positions axis="2Theta" unit="deg">
					<startPosition>4.00835563</startPosition>
					<endPosition>70.00115683</endPosition>
				</positions>
				<positions axis="Omega" unit="deg">
					<startPosition>2.00417782</startPosition>
					<endPosition>35.00057841</endPosition>
				</positions>
				<commonCountingTime unit="seconds">280.035</commonCountingTime>
				<intensities unit="counts">3165 3330 3091 3114 3198 3152 3088 3243 3195 3137 3155 3136 3074 3163 3081 3054 3124 3146 2965 3062 3027 3077 2907 2913 3040 3084 3049 3021 3007 3095 3038 3049 2963 2971 3000 3055 3038 3163 2935 2930 2941 2974 3019 2917 2906 2896 2912 2884 2839 2874 2928 2849 2867 2977 2920 2958 2876 2951 2884 2938 2914 2835 2885 2791 2771 2779 2802 2791 2863 2837 2795 2934 2791 2870 2882 2835 2785 2811 2816 2705 2728 2793 2697 2807 2759 2683 2742 2677 2774 2700 2751 2772 2753 2666 2706 2656 2764 2721 2664 2653 2686 2633 2635 2708 2595 2666 2671 2671 2605 2659 2711 2585 2669 2557 2614 2521 2569 2629 2604 2550 2524 2491 2574 2648 2588 2476 2555 2565 2538 2628 2564 2455 2529 2513 2527 2559 2537 2549 2558 2587 2531 2486 2410 2478 2534 2380 2458 2432 2384 2384 2449 2514 2336 2531 2423 2386 2424 2334 2346 2437 2496 2344 2455 2380 2345 2445 2434 2438 2406 2306 2371 2362 2380 2268 2293 2377 2311 2294 2302 2345 2350 2269 2337 2182 2249 2314 2321 2263 2314 2245 2307 2225 2203 2227 2242 2266 2271 2225 2264 2298 2247 2225 2246 2317 2165 2199 2175 2216 2194 2237 2121 2277 2208 2102 2162 2181 2137 2137 2145 2167 2214 2116 2177 2147 2130 2163 2019 2135 2089 2152 2044 2037 2035 2099 2031 2052 2038 2023 2030 2087 1998 2036 2019 2009 2016 2012 2050 1936 2004 2053 1978 2053 1919 2032 2000 1979 2045 1947 2013 1833 2087 1929 1916 1913 1970 1999 1900 1991 1991 1938 2019 1904 1896 1910 1886 1938 2029 1879 1923 1873 1925 1871 1902 1913 1873 1841 1947 1816 1812 1814 1861 1811 1845 1836 1773 1837 1752 1822 1837 1831 1802 1791 1819 1825 1790 1775 1829 1764 1768 1798 1767 1698 1880 1839 1796 1756 1748 1722 1730 1721 1714 1731 1765 1740 1695 1711 1711 1711 1657 1630 1664 1682 1693 1698 1737 1691 1653 1710 1664 1610 1630 1643 1693 1616 1588 1666 1605 1666 1671 1568 1620 1626 1653 1561 1650 1644 1559 1643 1621 1625 1567 1472 1651 1587 1580 1514 1617 1589 1623 1537 1540 1570 1537 1505 1482 1540 1539 1498 1539 1510 1474 1497 1540 1493 1532 1539 1503 1485 1505 1461 1571 1527 1492 1479 1518 1395 1477 1476 1414 1452 1521 1480 1493 1446 1447 1495 1440 1421 1432 1463 1519 1454 1396 1416 1403 1409 1383 1427 1427 1394 1459 1463 1462 1365 1476 1372 1477 1379 1429 1415 1339 1415 1454 1364 1352 1399 1320 1432 1401 1314 1326 1393 1392 1360 1343 1385 1384 1341 1364 1358 1348 1299 1421 1381 1318 1338 1342 1356 1345 1304 1360 1387 1374 1431 1375 1362 1329 1411 1333 1431 1342 1430 1442 1469 1440 1489 1526 1573 1678 1610 1668 1808 1672 1831 1841 1779 1777 1865 1780 1764 1735 1623 1629 1564 1502 1510 1457 1412 1372 1343 1351 1340 1387 1247 1308 1281 1257 1254 1269 1290 1300 1204 1244 1240 1191 1210 1204 1208 1165 1160 1225 1217 1161 1138 1194 1170 1221 1143 1164 1179 1206 1115 1166 1177 1228 1149 1196 1167 1156 1104 1132 1177 1127 1136 1098 1156 1107 1184 1197 1088 1119 1185 1146 1154 1145 1129 1119 1145 1148 1144 1055 1153 1138 1091 1091 1167 1087 1127 1082 1055 1078 1090 1082 1131 1086 1034 1103 1017 1132 1101 1147 1113 1101 1159 1080 1126 1085 1074 1116 1119 1047 998 1056 1068 1069 1107 1057 1111 1048 1070 1078 1047 1057 1149 1008 1009 1018 963 1045 1008 1016 1070 1053 1038 1000 1023 1028 1048 1061 1084 1051 1048 1010 1000 1025 977 1043 980 972 1113 1001 1014 1032 1026 1086 1043 994 1110 1002 1036 1031 1051 1103 1087 1156 1196 1346 1343 1498 1666 1751 1775 1706 1369 1153 1079 1049 991 981 949 938 971 996 981 944 973 969 987 936 959 917 937 948 954 945 1004 950 952 950 945 971 891 917 905 911 938 937 888 921 981 916 943 956 885 917 911 956 924 937 918 919 912 943 904 891 899 915 957 888 901 893 894 906 896 954 969 968 914 970 933 1074 1018 1122 1115 1038 1154 1062 959 934 860 920 882 851 878 859 910 905 858 833 860 857 863 852 870 801 873 909 852 832 884 824 808 869 844 824 833 833 820 857 837 825 863 882 818 867 851 882 852 868 805 807 849 811 785 838 863 794 853 792 809 809 838 840 856 746 771 806 817 852 790 825 823 781 792 820 749 745 806 770 762 786 849 791 699 782 798 773 763 779 776 808 769 802 801 786 810 755 803 764 784 760 755 758 780 761 778 802 733 791 730 738 741 771 819 808 762 839 810 817 761 786 778 787 773 777 773 812 757 723 746 724 731 711 748 789 723 724 751 776 745 687 781 731 748 780 754 756 721 722 715 646 702 769 667 713 744 745 702 772 739 733 731 687 731 724 712 739 765 686 720 787 703 737 796 801 760 784 767 807 778 774 794 754 754 733 731 724 688 747 762 680 684 677 696 660 675 706 686 672 693 683 713 695 704 733 683 681 728 726 731 671 712 676 638 669 691 688 720 664 650 676 673 656 676 710 676 659 696 681 711 722 611 638 635 700 681 661 686 650 672 655 670 661 684 656 675 648 691 684 698 673 724 696 714 692 714 661 700 663 694 605 655 633 639 656 623 663 661 631 610 662 644 627 622 655 634 649 622 684 618 613 650 678 617 632 618 705 678 650 634 624 635 635 621 605 641 644 633 645 640 653 574 605 571 616 626 639 620 649 641 637 632 630 622 658 641 602 651 595 602 665 612 582 630 634 591 642 599 643 622 653 623 576 642 623 604 576 586 578 548 623 596 628 607 657 592 609 588 609 560 640 560 658 563 591 593 614 602 622 641 568 638 620 579 617 627 551 592 608 602 585 621 608 621 628 645 644 632 639 615 648 602 607 631 609 620 582 671 656 614 608 638 660 617 626 610 656 600 627 627 681 681 667 675 678 746 755 882 905 1028 1168 1285 1395 1265 1246 1257 1017 842 686 702 676 725 716 675 688 606 627 681 635 628 661 639 597 615 599 632 651 602 621 627 653 625 618 605 595 588 571 634 600 557 583 500 578 565 589 549 567 568 565 579 568 549 563 535 562 597 590 562 578 582 517 574 597 577 568 553 560 559 569 579 544 536 535 530 555 542 520 534 551 518 536 553 539 542 553 556 493 564 521 539 537 567 492 547 525 524 547 557 506 519 539 525 544 529 535 566 561 525 518 523 574 508 511 540 543 506 498 511 458 541 497 540 549 513 535 516 577 599 552 561 594 638 716 805 917 1072 1143 1067 1048 860 794 744 756 684 655 553 565 535 536 541 493 494 526 548 510 571 491 520 521 511 509 534 495 488 500 493 530 504 544 547 533 551 491 529 495 514 484 531 521 477 499 512 504 555 529 507 508 540 513 540 552 509 535 555 534 542 518 562 549 605 561 660 584 623 598 618 533 575 491 485 510 523 475 465 529 558 528 534 523 583 513 592 580 523 543 526 500 506 546 502 529 488 499 504 469 503 464 499 475 519 534 495 504 513 528 515 544 512 531 491 510 526 491 507 539 542 564 565 584 560 592 586 574 547 558 599 700 686 764 746 739 728 743 709 730 683 660 588 681 599 622 628 600 617 574 644 601 595 698 667 718 748 725 748 704 729 715 666 718 808 828 919 959 932 894 923 776 731 710 666 613 579 567 590 549 545 524 539 530 514 544 518 508 486 502 495 502 506 533 479 502 486 519 475 476 484 477 500 499 468 543 503 524 503 433 503 525 510 528 518 561 486 519 518 580 563 582 593 542 562 644 569 640 601 584 518 546 561 544 566 586 609 605 608 626 651 699 700 803 1052 1267 1763 2358 3282 4465 5291 5711 5549 5601 6291 7665 9096 9685 8653 5844 3150 1743 1087 871 794 774 698 609 582 590 590 558 548 576 536 565 577 504 580 593 583 590 613 632 698 802 800 1065 1317 1755 2180 2570 2595 2660 2718 2964 2901 2394 1692 1099 785 648 593 567 561 543 540 523 535 524 555 545 546 517 482 484 516 509 470 490 472 481 448 492 475 514 498 503 555 537 503 519 511 540 546 548 559 526 536 537 567 568 610 578 650 653 735 795 813 879 841 736 705 675 562 571 574 567 534 521 518 507 494 539 542 519 525 518 488 532 520 515 533 532 500 544 579 543 577 612 596 632 614 735 699 752 729 741 760 798 800 741 714 760 722 722 704 760 765 774 830 843 918 1010 1017 1184 1242 1466 1634 1706 1746 1865 1932 2072 2214 2494 2991 3688 4841 6574 9154 12027 14361 13783 10152 5750 3130 1931 1570 1540 1416 1475 1479 1683 1914 2483 3118 4161 5661 7043 7761 7363 6722 6422 7143 8553 10443 11584 11007 8060 4876 2951 1939 1550 1314 1200 1182 1093 1142 1053 1023 1019 971 972 893 878 930 772 818 868 840 833 869 788 803 751 796 770 836 876 956 1156 1134 1149 1111 987 964 912 757 720 639 546 541 562 604 567 586 575 547 569 600 608 543 582 549 583 534 517 520 588 537 598 574 557 541 525 569 568 555 595 542 582 610 640 650 629 653 686 718 686 755 832 845 828 899 860 923 968 1014 1031 1118 1213 1324 1622 2080 2882 4275 6434 8934 11689 13416 14734 13344 11199 7860 4526 2557 1573 1107 952 833 745 665 617 604 549 556 519 560 504 542 486 476 499 490 488 464 449 466 485 450 487 477 468 482 433 454 455 463 469 471 513 507 510 572 548 596 563 547 575 526 591 484 545 485 508 458 492 496 455 514 482 460 447 484 455 475 438 453 474 471 518 463 439 433 436 471 464 419 435 451 494 476 486 461 454 516 501 507 500 530 550 572 605 649 576 629 551 582 532 520 493 484 460 476 465 477 433 418 439 468 462 477 470 459 475 496 497 496 511 549 531 501 542 511 530 582 527 526 578 568 622 611 683 705 806 960 1097 1247 1505 1690 1811 1900 1654 1414 1131 927 775 715 703 755 763 737 700 610 551 591 459 512 504 495 482 510 492 507 533 551 537 531 536 584 629 594 614 596 640 581 605 548 557 586 497 528 469 507 477 463 428 469 460 423 496 471 452 484 483 449 466 476 471 431 469 453 472 513 492 506 484 453 490 519 496 487 502 476 503 523 533 560 540 529 531 494 493 449 454 438 429 465 483 441 450 458 463 438 434 435 466 520 445 415 451 455 443 454 418 430 427 447 462 492 509 498 575 651 829 1029 1291 1588 1606 1657 1510 1499 1591 1934 2464 2965 2998 2747 1942 1421 1145 1055 1021 895 829 665 632 646 658 641 714 758 742 805 805 817 712 714 775 753 787 826 813 797 805 860 839 912 884 919 892 860 812 731 711 676 671 630 629 661 682 644 649 664 680 689 646 646 610 590 559 558 531 560 520 494 445 452 472 451 480 472 487 498 476 484 463 448 427 446 465 432 437 441 430 422 442 405 416 451 394 406 437 393 403 432 390 431 390 448 425 428 395 421 408 438 439 434 431 433 435 446 439 433 433 459 494 517 486 499 506 512 527 496 552 533 565 555 606 573 639 667 683 659 737 735 760 800 825 881 942 1018 1099 1235 1193 1196 1250 1304 1385 1652 2095 2983 4115 5728 7252 8397 8203 6899 5292 3773 2888 2256 1742 1300 1026 835 836 835 893 921 1175 1531 1886 2151 2302 2108 1742 1429 1301 1289 1243 1201 1100 952 775 606 571 494 451 462 431 452 446 435 412 420 381 420 438 433 411 436 464 433 454 481 475 484 459 487 478 482 492 560 532 565 596 551 539 543 516 537 536 460 472 498 443 465 457 474 481 479 487 484 464 488 537 609 567 673 754 792 889 1081 1393 1708 2232 2670 2955 2817 2293 1728 1343 1096 939 875 879 808 792 823 798 787 791 797 839 805 840 796 718 774 647 620 542 555 515 488 513 501 545 480 488 448 517 480 504 466 481 469 479 496 492 495 493 527 527 511 555 588 604 574 578 565 635 663 649 641 621 596 582 557 507 527 565 499 495 504 465 588 542 547 531 560 526 527 500 537 485 479 485 483 495 486 472 472 516 507 523 573 581 542 521 556 551 584 559 622 653 689 635 657 551 623 631 566 567 581 567 533 585 576 526 542 499 488 500 494 470 462 428 465 401 387 454 404 439 392 412 394 431 402 396 412 411 373 445 464 458 488 521 521 499 497 460 474 493 491 438 471 441 494 501 493 495 493 470 477 518 418 481 500 528 571 565 648 765 787 968 1069 1168 1199 1145 1052 918 950 951 1085 1241 1380 1591 1499 1446 1221 903 738 590 540 479 443 461 433 418 411 414 412 386 400 416 404 398 390 415 403 364 346 406 368 409 462 417 389 387 406 405 425 457 403 435 399 447 447 469 422 421 420 455 488 474 466 463 472 464 477 557 625 739 886 1054 1204 1240 1209 1181 1279 1365 1734 1905 2173 2146 1816 1334 949 675 559 451 480 487 446 419 465 485 481 469 452 476 463 467 475 471 478 476 514 477 451 490 470 459 457 423 402 434 398 392 417 428 435 454 420 427 467 467 428 447 450 439 503 452 439 427 470 450 435 428 429 452 411 393 399 354 374 403 389 382 402 346 355 323 368 361 348 338 355 367 324 328 344 367 355 315 323 343 312 337 336 346 341 351 373 363 344 339 349 361 337 304 337 330 333 400 336 322 374 336 323 357 350 362 325 315 345 343 353 341 360 360 370 420 419 436 435 457 422 425 398 398 402 364 414 404 431 385 417 399 380 421 416 423 415 427 427 416 437 427 444 479 481 478 514 530 602 657 665 782 935 811 916 993 952 1006 914 845 739 698 678 663 633 690 785 857 928 891 804 784 756 722 764 948 1003 1008 947 823 655 509 462 426 413 390 372 397 380 406 405 390 374 378 404 425 454 445 419 405 442 452 426 443 459 455 457 436 466 437 432 484 460 433 402 404 425 411 422 450 447 478 429 466 450 444 469 484 471 464 481 500 467 498 437 444 408 400 379 374 388 384 390 366 349 366 340 360 349 370 368 387 405 406 361 393 371 431 399 376 367 421 379 428 448 459 468 449 496 562 680 716 832 1122 1608 2195 3317 4407 5536 6587 6747 6139 5018 3914 2798 2228 2048 2190 2465 2703 3129 3297 3179 2753 2182 1672 1101 801 656 563 488 455 436 467 463 427 386 397 421 415 360 386 381 400 395 385 393 380 396 369 429 357 436 379 406 393 397 371 365 343 402 420 353 351 354 349 350 316 332 353 380 330 363 395 367 396 395 377 398 400 395 401 409 418 384 392 448 411 434 447 404 403 406 419 438 390 435 439 466 438 432 465 444 425 461 435 442 459 487 457 449 447 490 463 471 450 422 433 411 426 398 428 400 383 411 412 387 357 383 400 357 389 403 400 389 400 415 406 436 441 437 444 454 483 539 521 583 609 581 602 641 537 599 495 502 488 499 514 499 550 559 569 558 555 515 437 449 419 408 422 398 387 370 345 365 378 390 386 330 381 337 324 343 356 322 356 366 323 337 328 337 338 341 312 327 314 336 374 356 349 333 338 334 352 351 371 363 416 390 409 415 416 441 436 420 388 348 373 352 334 338 345 306 382 368 344 370 365 337 364 353 370 334 353 305 373 324 352 341 314 374 355 376 351 350 327 384 332 363 366 405 372 402 401 426 399 453 461 502 571 561 678 647 693 711 749 718 724 721 586 579 499 475 465 481 495 480 494 534 551 609 586 601 661 692 722 742 844 926 1145 1318 1756 1930 2051 2099 2141 2147 2143 2492 2808 3304 3268 3061 2367 1769 1285 993 817 712 703 654 618 608 555 560 575 509 525 512 513 472 499 453 481 430 432 417 452 429 468 486 439 458 441 461 428 481 439 427 430 438 406 457 513 511 487 469 504 511 459 422 460 437 457 446 477 448 431 422 430 437 452 447 428 452 448 460 455 453 429 476 454 496 480 472 523 487 531 495 516 512 528 542 520 485 511 493 433 458 447 479 439 474 454 441 392 393 422 421 443 395 412 453 401 402 397 389 434 438 400 460 461 472 458 516 530 513 478 461 444 429 412 438 447 425 402 431 419 415 399 380 413 328 394 376 366 336 376 345 360 345 370 340 340 345 324 379 335 331 356 356 349 363 377 383 387 405 453 417 466 490 458 506 448 403 445 436 422 401 367 465 431 422 394 460 467 390 418 401 432 418 390 371 388 419 382 382 405 405 396 386 387 437 432 461 495 541 613 698 916 1188 1285 1783 2191 2715 2930 2926 2606 2089 1443 955 762 605 499 472 448 437 463 432 412 419 429 400 416 404 371 406 383 450 412 412 428 458 444 451 528 525 589 620 559 512 507 488 436 451 450 451 510 569 639 658 666 596 635 566 549 502 471 428 460 444 462 422 431 406 435 416 388 416 426 462 480 516 537 576 532 504 543 496 452 426 413 415 376 365 362 329 327 344 351 367 336 331 393 372 372 335 356 423 399 370 348 334 337 348 373 340 380 341 385 420 384 432 493 519 504 542 560 508 511 533 533 495 495 463 501 532 569 568 690 695 811 998 1147 1516 1917 2483 2925 3231 3370 3445 3354 3276 3305 3396 3195 2925 2673 2596 2646 2772 2849 2730 2422 2156 1731 1503 1359 1295 1297 1438 1413 1332 1277 1072 988 810 658 533 540 485 481 446 443 490 466 462 479 434 518 488 498 469 513 536 561 534 524 503 511 508 444 431 421 364 409 369 389 403 346 321 367 350 387 383 377 414 395 490 495 578 656 670 679 695 678 609 540 563 520 526 579 588 697 796 974 1038 1253 1270 1382 1409 1263 1048 884 676 596 540 529 502 483 539 481 563 528 472 481 437 398 384 349 345 333 306 353 337 272 306 297 337 322 321 269 294 332 314 317 308 346 323 311 308 320 322 340 315 312 345 331 321 349 348 351 355 298 369 339 310 323 307 315 333 340 324 322 325 365 347 399 347 373 411 410 381 376 348 334 354 346 359 323 376 364 383 428 415 404 433 465 495 520 534 510 547 485 466 460 430 411 412 404 419 421 408 401 372 324 357 405 383 367 365 333 348 329 349 311 330 334 344 327 319 334 338 335 346 343 344 353 361 319 315 332 340 328 341 319 327 319 341 372 386 323 389 360 349 337 343 339 373 315 349 319 319 318 307 351 364 390 410 439 437 453 468 461 422 458 437 421 442 441 502 430 388 408 403 399 382 361 359 355 359 356 364 364 386 334 321 349 379 357 378 357 355 334 327 368 384 333 304 377 364 323 385 356 417 356 372 376 360 389 395 401 410 428 500 523 559 679 699 786 827 870 842 708 626 546 455 370 339 343 315 310 331 318 295 339 304 318 295 307 336 306 341 314 285 311 306 343 327 324 341 357 380 399 341 371 401 420 469 502 477 497 412 480 450 465 492 428 392 404 431 416 425 463 486 514 600 633 617 638 637 642 573 528 478 494 422 386 397 378 425 403 399 420 383 371 376 405 386 344 351 324 333 314 306 299 295 304 313 313 308 320 266 264 308 323 295 328 275 303 286 302 298 295 305 282 285 295 294 275 288 284 296 295 325 289 289 270 314 289 299 343 313 339 314 359 338 320 356 387 371 347 343 334 364 317 349 341 372 376 338 353 366 332 327 348 304 300 321 349 284 310 272 264 302</intensities>
			</dataPoints>
		</scan>
	</xrdMeasurement>
</xrdMeasurements>
